__time,/effort_control/data.0,/effort_control/layout/data_offset,/joint_states/header/stamp,/joint_states/joint0/effort,/joint_states/joint0/position,/joint_states/joint0/velocity,/joint_states/joint1/effort,/joint_states/joint1/position,/joint_states/joint1/velocity
1707670562.524403,,,1707670562.524108410,0.000000000,-0.151912035,0.000000000,0.000000000,-0.024543698,0.000000000
1707670562.526876,,,1707670562.526176453,0.000000000,-0.151912035,0.000000000,0.000000000,-0.024543698,0.000000000
1707670562.528655,,,1707670562.528048277,0.000000000,-0.151912035,0.000000000,0.000000000,-0.024543698,0.000000000
1707670562.531396,,,1707670562.530723810,0.000000000,-0.151912035,0.000000000,0.000000000,-0.024543698,0.000000000
1707670562.532597,,,1707670562.532433271,0.000000000,-0.151912035,0.000000000,0.000000000,-0.024543698,0.000000000
1707670562.534401,,,1707670562.534171581,0.000000000,-0.151912035,0.000000000,0.000000000,-0.024543698,0.000000000
1707670562.536757,,,1707670562.536055088,0.000000000,-0.151912035,0.000000000,0.000000000,-0.024543698,0.000000000
1707670562.538448,,,1707670562.538090706,0.000000000,-0.151912035,0.000000000,0.000000000,-0.024543698,0.000000000
1707670562.540226,,,1707670562.540054321,0.000000000,-0.151912035,0.000000000,0.000000000,-0.024543698,0.000000000
1707670562.543189,,,1707670562.542632341,0.000000000,-0.151912035,0.000000000,0.000000000,-0.024543698,0.000000000
1707670562.545181,,,1707670562.544416428,0.000000000,-0.151912035,0.000000000,0.000000000,-0.024543698,0.000000000
1707670562.547358,,,1707670562.546429157,0.000000000,-0.151912035,0.000000000,0.000000000,-0.024543698,0.000000000
1707670562.549573,,,1707670562.548838139,0.000000000,-0.151912035,0.000000000,0.000000000,-0.024543698,0.000000000
1707670562.551443,,,1707670562.550923586,0.000000000,-0.151912035,0.000000000,0.000000000,-0.024543698,0.000000000
1707670562.553350,,,1707670562.553028107,0.000000000,-0.151912035,0.000000000,0.000000000,-0.024543698,0.000000000
1707670562.555293,,,1707670562.554792643,0.000000000,-0.151912035,0.000000000,0.000000000,-0.024543698,0.000000000
1707670562.558231,,,1707670562.557356596,0.000000000,-0.151912035,0.000000000,0.000000000,-0.024543698,0.000000000
1707670562.559921,,,1707670562.559492111,0.000000000,-0.151912035,0.000000000,0.000000000,-0.024543698,0.000000000
1707670562.561602,,,1707670562.561200380,0.000000000,-0.151912035,0.000000000,0.000000000,-0.024543698,0.000000000
1707670562.563383,,,1707670562.562908411,0.000000000,-0.151912035,0.000000000,0.000000000,-0.024543698,0.000000000
1707670562.565162,,,1707670562.564676523,0.000000000,-0.151912035,0.000000000,0.000000000,-0.024543698,0.000000000
1707670562.566974,,,1707670562.566461802,0.000000000,-0.151912035,0.000000000,0.000000000,-0.024543698,0.000000000
1707670562.568830,,,1707670562.568310022,0.000000000,-0.151912035,0.000000000,0.000000000,-0.024543698,0.000000000
1707670562.570696,,,1707670562.570042133,0.000000000,-0.151912035,0.000000000,0.000000000,-0.024543698,0.000000000
1707670562.572736,,,1707670562.572462320,0.000000000,-0.151912035,0.000000000,0.000000000,-0.024543698,0.000000000
1707670562.574636,,,1707670562.574160576,0.000000000,-0.151912035,0.000000000,0.000000000,-0.024543698,0.000000000
1707670562.576339,,,1707670562.576109648,0.000000000,-0.151912035,0.000000000,0.000000000,-0.024543698,0.000000000
1707670562.578575,,,1707670562.578206778,0.000000000,-0.151912035,0.000000000,0.000000000,-0.024543698,0.000000000
1707670562.580312,,,1707670562.580068111,0.000000000,-0.151912035,0.000000000,0.000000000,-0.024543698,0.000000000
1707670562.582635,,,1707670562.582198858,0.000000000,-0.151912035,0.000000000,0.000000000,-0.024543698,0.000000000
1707670562.584458,,,1707670562.584044218,0.000000000,-0.151912035,0.000000000,0.000000000,-0.024543698,0.000000000
1707670562.586950,,,1707670562.586231709,0.000000000,-0.151912035,0.000000000,0.000000000,-0.024543698,0.000000000
1707670562.588594,,,1707670562.588092089,0.000000000,-0.151912035,0.000000000,0.000000000,-0.024543698,0.000000000
1707670562.590491,,,1707670562.590193272,0.000000000,-0.151912035,0.000000000,0.000000000,-0.024543698,0.000000000
1707670562.592315,,,1707670562.592158556,0.000000000,-0.151912035,0.000000000,0.000000000,-0.024543698,0.000000000
1707670562.594563,,,1707670562.594184160,0.000000000,-0.151912035,0.000000000,0.000000000,-0.024543698,0.000000000
1707670562.596297,,,1707670562.596176147,0.000000000,-0.151912035,0.000000000,0.000000000,-0.024543698,0.000000000
1707670562.598709,,,1707670562.598353863,0.000000000,-0.151912035,0.000000000,0.000000000,-0.024543698,0.000000000
1707670562.600569,,,1707670562.600074291,0.000000000,-0.151912035,0.000000000,0.000000000,-0.024543698,0.000000000
1707670562.603060,,,1707670562.602674007,0.000000000,-0.151912035,0.000000000,0.000000000,-0.024543698,0.000000000
1707670562.604861,,,1707670562.604290962,0.000000000,-0.151912035,0.000000000,0.000000000,-0.024543698,0.000000000
1707670562.606705,,,1707670562.606063604,0.000000000,-0.151912035,0.000000000,0.000000000,-0.024543698,0.000000000
1707670562.610332,,,1707670562.609578609,0.000000000,-0.151912035,0.000000000,0.000000000,-0.024543698,0.000000000
1707670562.612089,,,1707670562.611702442,0.000000000,-0.151912035,0.000000000,0.000000000,-0.024543698,0.000000000
1707670562.613827,,,1707670562.613446474,0.000000000,-0.151912035,0.000000000,0.000000000,-0.024543698,0.000000000
1707670562.615677,,,1707670562.615168095,0.000000000,-0.151912035,0.000000000,0.000000000,-0.024543698,0.000000000
1707670562.617546,,,1707670562.617011309,0.000000000,-0.151912035,0.000000000,0.000000000,-0.024543698,0.000000000
1707670562.619298,,,1707670562.618764162,0.000000000,-0.151912035,0.000000000,0.000000000,-0.024543698,0.000000000
1707670562.621069,,,1707670562.620419264,0.000000000,-0.151912035,0.000000000,0.000000000,-0.024543698,0.000000000
1707670562.622855,,,1707670562.622168779,0.000000000,-0.151912035,0.000000000,0.000000000,-0.024543698,0.000000000
1707670562.624625,,,1707670562.624086857,0.000000000,-0.151912035,0.000000000,0.000000000,-0.024543698,0.000000000
1707670562.626380,,,1707670562.626170635,0.000000000,-0.151912035,0.000000000,0.000000000,-0.024543698,0.000000000
1707670562.628789,,,1707670562.628206491,0.000000000,-0.151912035,0.000000000,0.000000000,-0.024543698,0.000000000
1707670562.630494,,,1707670562.630231619,0.000000000,-0.151912035,0.000000000,0.000000000,-0.024543698,0.000000000
1707670562.632792,,,1707670562.632201910,0.000000000,-0.151912035,0.000000000,0.000000000,-0.024543698,0.000000000
1707670562.634470,,,1707670562.634124041,0.000000000,-0.151912035,0.000000000,0.000000000,-0.024543698,0.000000000
1707670562.636715,,,1707670562.636233091,0.000000000,-0.151912035,0.000000000,0.000000000,-0.024543698,0.000000000
1707670562.638611,,,1707670562.638401031,0.000000000,-0.151912035,0.000000000,0.000000000,-0.024543698,0.000000000
1707670562.640431,,,1707670562.640172720,0.000000000,-0.151912035,0.000000000,0.000000000,-0.024543698,0.000000000
1707670562.642957,,,1707670562.642199278,0.000000000,-0.151912035,0.000000000,0.000000000,-0.024543698,0.000000000
1707670562.644683,,,1707670562.644291878,0.000000000,-0.151912035,0.000000000,0.000000000,-0.024543698,0.000000000
1707670562.646596,,,1707670562.646039486,0.000000000,-0.151912035,0.000000000,0.000000000,-0.024543698,0.000000000
1707670562.649087,,,1707670562.648288965,0.000000000,-0.151912035,0.000000000,0.000000000,-0.024543698,0.000000000
1707670562.650912,,,1707670562.650404453,0.000000000,-0.151912035,0.000000000,0.000000000,-0.024543698,0.000000000
1707670562.652697,,,1707670562.652181387,0.000000000,-0.151912035,0.000000000,0.000000000,-0.024543698,0.000000000
1707670562.654541,,,1707670562.654089212,0.000000000,-0.151912035,0.000000000,0.000000000,-0.024543698,0.000000000
1707670562.656797,,,1707670562.656165838,0.000000000,-0.151912035,0.000000000,0.000000000,-0.024543698,0.000000000
1707670562.658455,,,1707670562.658077240,0.000000000,-0.151912035,0.000000000,0.000000000,-0.024543698,0.000000000
1707670562.660393,,,1707670562.660051107,0.000000000,-0.151912035,0.000000000,0.000000000,-0.024543698,0.000000000
1707670562.662920,,,1707670562.662322044,0.000000000,-0.151912035,0.000000000,0.000000000,-0.024543698,0.000000000
1707670562.664632,,,1707670562.664166212,0.000000000,-0.151912035,0.000000000,0.000000000,-0.024543698,0.000000000
1707670562.666410,,,1707670562.666175127,0.000000000,-0.151912035,0.000000000,0.000000000,-0.024543698,0.000000000
1707670562.669837,,,1707670562.669671059,0.000000000,-0.151912035,0.000000000,0.000000000,-0.024543698,0.000000000
1707670562.672092,,,1707670562.671334505,0.000000000,-0.151912035,0.000000000,0.000000000,-0.024543698,0.000000000
1707670562.675004,,,1707670562.674345255,0.000000000,-0.151912035,0.000000000,0.000000000,-0.024543698,0.000000000
1707670562.676766,,,1707670562.676209450,0.000000000,-0.151912035,0.000000000,0.000000000,-0.024543698,0.000000000
1707670562.678521,,,1707670562.677940607,0.000000000,-0.151912035,0.000000000,0.000000000,-0.024543698,0.000000000
1707670562.680650,,,1707670562.680238008,0.000000000,-0.151912035,0.000000000,0.000000000,-0.024543698,0.000000000
1707670562.682400,,,1707670562.682040691,0.000000000,-0.151912035,0.000000000,0.000000000,-0.024543698,0.000000000
1707670562.684170,,,1707670562.683788776,0.000000000,-0.151912035,0.000000000,0.000000000,-0.024543698,0.000000000
1707670562.686339,,,1707670562.685574055,0.000000000,-0.151912035,0.000000000,0.000000000,-0.024543698,0.000000000
1707670562.688163,,,1707670562.687793016,0.000000000,-0.151912035,0.000000000,0.000000000,-0.024543698,0.000000000
1707670562.689862,,,1707670562.689631462,0.000000000,-0.151912035,0.000000000,0.000000000,-0.024543698,0.000000000
1707670562.691731,,,1707670562.691307306,0.000000000,-0.151912035,0.000000000,0.000000000,-0.024543698,0.000000000
1707670562.693871,,,1707670562.693421602,0.000000000,-0.151912035,0.000000000,0.000000000,-0.024543698,0.000000000
1707670562.695674,,,1707670562.695165634,0.000000000,-0.151912035,0.000000000,0.000000000,-0.024543698,0.000000000
1707670562.697493,,,1707670562.696956635,0.000000000,-0.151912035,0.000000000,0.000000000,-0.024543698,0.000000000
1707670562.699208,,,1707670562.698679686,0.000000000,-0.151912035,0.000000000,0.000000000,-0.024543698,0.000000000
1707670562.701033,,,1707670562.700412750,0.000000000,-0.151912035,0.000000000,0.000000000,-0.024543698,0.000000000
1707670562.702815,,,1707670562.702302694,0.000000000,-0.151912035,0.000000000,0.000000000,-0.024543698,0.000000000
1707670562.704601,,,1707670562.704050779,0.000000000,-0.151912035,0.000000000,0.000000000,-0.024543698,0.000000000
1707670562.706430,,,1707670562.706166267,0.000000000,-0.151912035,0.000000000,0.000000000,-0.024543698,0.000000000
1707670562.708299,,,1707670562.708170891,0.000000000,-0.151912035,0.000000000,0.000000000,-0.024543698,0.000000000
1707670562.710620,,,1707670562.710209131,0.000000000,-0.151912035,0.000000000,0.000000000,-0.024543698,0.000000000
1707670562.712358,,,1707670562.712213755,0.000000000,-0.151912035,0.000000000,0.000000000,-0.024543698,0.000000000
1707670562.714609,,,1707670562.714287281,0.000000000,-0.151912035,0.000000000,0.000000000,-0.024543698,0.000000000
1707670562.716308,,,1707670562.716039419,0.000000000,-0.151912035,0.000000000,0.000000000,-0.024543698,0.000000000
1707670562.718633,,,1707670562.718075275,0.000000000,-0.151912035,0.000000000,0.000000000,-0.024543698,0.000000000
1707670562.720789,,,1707670562.720346212,0.000000000,-0.151912035,0.000000000,0.000000000,-0.024543698,0.000000000
1707670562.722537,,,1707670562.722168446,0.000000000,-0.151912035,0.000000000,0.000000000,-0.024543698,0.000000000
1707670562.724869,,,1707670562.724136829,0.000000000,-0.151912035,0.000000000,0.000000000,-0.024543698,0.000000000
1707670562.726521,,,1707670562.726220369,0.000000000,-0.151912035,0.000000000,0.000000000,-0.024543698,0.000000000
1707670562.728293,,,1707670562.728147984,0.000000000,-0.151912035,0.000000000,0.000000000,-0.024543698,0.000000000
1707670562.730913,,,1707670562.730771065,0.000000000,-0.151912035,0.000000000,0.000000000,-0.024543698,0.000000000
1707670562.733169,,,1707670562.732628107,0.000000000,-0.151912035,0.000000000,0.000000000,-0.024543698,0.000000000
1707670562.734868,,,1707670562.734293461,0.000000000,-0.151912035,0.000000000,0.000000000,-0.024543698,0.000000000
1707670562.736542,,,1707670562.736093283,0.000000000,-0.151912035,0.000000000,0.000000000,-0.024543698,0.000000000
1707670562.738838,,,1707670562.738195181,0.000000000,-0.151912035,0.000000000,0.000000000,-0.024543698,0.000000000
1707670562.740593,,,1707670562.740191221,0.000000000,-0.151912035,0.000000000,0.000000000,-0.024543698,0.000000000
1707670562.742862,,,1707670562.742242813,0.000000000,-0.151912035,0.000000000,0.000000000,-0.024543698,0.000000000
1707670562.744628,,,1707670562.744132996,0.000000000,-0.151912035,0.000000000,0.000000000,-0.024543698,0.000000000
1707670562.746282,,,1707670562.746046543,0.000000000,-0.151912035,0.000000000,0.000000000,-0.024543698,0.000000000
1707670562.748543,,,1707670562.748039961,0.000000000,-0.151912035,0.000000000,0.000000000,-0.024543698,0.000000000
1707670562.750804,,,1707670562.750173092,0.000000000,-0.151912035,0.000000000,0.000000000,-0.024543698,0.000000000
1707670562.752487,,,1707670562.752168417,0.000000000,-0.151912035,0.000000000,0.000000000,-0.024543698,0.000000000
1707670562.754159,,,1707670562.754025698,0.000000000,-0.151912035,0.000000000,0.000000000,-0.024543698,0.000000000
1707670562.756956,,,1707670562.756546259,0.000000000,-0.151912035,0.000000000,0.000000000,-0.024543698,0.000000000
1707670562.758782,,,1707670562.758290768,0.000000000,-0.151912035,0.000000000,0.000000000,-0.024543698,0.000000000
1707670562.760553,,,1707670562.760039568,0.000000000,-0.151912035,0.000000000,0.000000000,-0.024543698,0.000000000
1707670562.762367,,,1707670562.762161732,0.000000000,-0.151912035,0.000000000,0.000000000,-0.024543698,0.000000000
1707670562.764769,,,1707670562.764280558,0.000000000,-0.151912035,0.000000000,0.000000000,-0.024543698,0.000000000
1707670562.766597,,,1707670562.766032219,0.000000000,-0.151912035,0.000000000,0.000000000,-0.024543698,0.000000000
1707670562.768318,,,1707670562.768067360,0.000000000,-0.151912035,0.000000000,0.000000000,-0.024543698,0.000000000
1707670562.770861,,,1707670562.770424128,0.000000000,-0.151912035,0.000000000,0.000000000,-0.024543698,0.000000000
1707670562.772539,,,1707670562.772217512,0.000000000,-0.151912035,0.000000000,0.000000000,-0.024543698,0.000000000
1707670562.774262,,,1707670562.774048805,0.000000000,-0.151912035,0.000000000,0.000000000,-0.024543698,0.000000000
1707670562.776519,,,1707670562.776040554,0.000000000,-0.151912035,0.000000000,0.000000000,-0.024543698,0.000000000
1707670562.778802,,,1707670562.778170109,0.000000000,-0.151912035,0.000000000,0.000000000,-0.024543698,0.000000000
1707670562.780423,,,1707670562.780306578,0.000000000,-0.151912035,0.000000000,0.000000000,-0.024543698,0.000000000
1707670562.782843,,,1707670562.782215357,0.000000000,-0.151912035,0.000000000,0.000000000,-0.024543698,0.000000000
1707670562.785547,,,1707670562.784952879,0.000000000,-0.151912035,0.000000000,0.000000000,-0.024543698,0.000000000
1707670562.788856,,,1707670562.788170576,0.000000000,-0.151912035,0.000000000,0.000000000,-0.024543698,0.000000000
1707670562.789988,,,1707670562.789787292,0.000000000,-0.151912035,0.000000000,0.000000000,-0.024543698,0.000000000
1707670562.792205,,,1707670562.791631937,0.000000000,-0.151912035,0.000000000,0.000000000,-0.024543698,0.000000000
1707670562.794034,,,1707670562.793412685,0.000000000,-0.151912035,0.000000000,0.000000000,-0.024543698,0.000000000
1707670562.796006,,,1707670562.795186758,0.000000000,-0.151912035,0.000000000,0.000000000,-0.024543698,0.000000000
1707670562.797791,,,1707670562.797451735,0.000000000,-0.151912035,0.000000000,0.000000000,-0.024543698,0.000000000
1707670562.799580,,,1707670562.799163103,0.000000000,-0.151912035,0.000000000,0.000000000,-0.024543698,0.000000000
1707670562.801224,,,1707670562.800950766,0.000000000,-0.151912035,0.000000000,0.000000000,-0.024543698,0.000000000
1707670562.803027,,,1707670562.802849293,0.000000000,-0.151912035,0.000000000,0.000000000,-0.024543698,0.000000000
1707670562.805284,,,1707670562.804761887,0.000000000,-0.151912035,0.000000000,0.000000000,-0.024543698,0.000000000
1707670562.807221,,,1707670562.806787252,0.000000000,-0.151912035,0.000000000,0.000000000,-0.024543698,0.000000000
1707670562.809427,,,1707670562.808748245,0.000000000,-0.151912035,0.000000000,0.000000000,-0.024543698,0.000000000
1707670562.810595,,,1707670562.810412645,0.000000000,-0.151912035,0.000000000,0.000000000,-0.024543698,0.000000000
1707670562.812855,,,1707670562.812203407,0.000000000,-0.151912035,0.000000000,0.000000000,-0.024543698,0.000000000
1707670562.814698,,,1707670562.814307928,0.000000000,-0.151912035,0.000000000,0.000000000,-0.024543698,0.000000000
1707670562.816414,,,1707670562.816037655,0.000000000,-0.151912035,0.000000000,0.000000000,-0.024543698,0.000000000
1707670562.818672,,,1707670562.818201303,0.000000000,-0.151912035,0.000000000,0.000000000,-0.024543698,0.000000000
1707670562.820298,,,1707670562.820043802,0.000000000,-0.151912035,0.000000000,0.000000000,-0.024543698,0.000000000
1707670562.822623,,,1707670562.822282791,0.000000000,-0.151912035,0.000000000,0.000000000,-0.024543698,0.000000000
1707670562.824899,,,1707670562.824272633,0.000000000,-0.151912035,0.000000000,0.000000000,-0.024543698,0.000000000
1707670562.826645,,,1707670562.826329708,0.000000000,-0.151912035,0.000000000,0.000000000,-0.024543698,0.000000000
1707670562.828214,,,1707670562.828058481,0.000000000,-0.151912035,0.000000000,0.000000000,-0.024543698,0.000000000
1707670562.830493,,,1707670562.830039024,0.000000000,-0.151912035,0.000000000,0.000000000,-0.024543698,0.000000000
1707670562.832876,,,1707670562.832281828,0.000000000,-0.151912035,0.000000000,0.000000000,-0.024543698,0.000000000
1707670562.834627,,,1707670562.834332466,0.000000000,-0.151912035,0.000000000,0.000000000,-0.024543698,0.000000000
1707670562.836389,,,1707670562.836177588,0.000000000,-0.151912035,0.000000000,0.000000000,-0.024543698,0.000000000
1707670562.838652,,,1707670562.838037252,0.000000000,-0.151912035,0.000000000,0.000000000,-0.024543698,0.000000000
1707670562.840397,,,1707670562.840038061,0.000000000,-0.151912035,0.000000000,0.000000000,-0.024543698,0.000000000
1707670562.843509,,,1707670562.842999220,0.000000000,-0.151912035,0.000000000,0.000000000,-0.024543698,0.000000000
1707670562.845311,,,1707670562.844711304,0.000000000,-0.151912035,0.000000000,0.000000000,-0.024543698,0.000000000
1707670562.847156,,,1707670562.846496344,0.000000000,-0.151912035,0.000000000,0.000000000,-0.024543698,0.000000000
1707670562.848376,,,1707670562.848164558,0.000000000,-0.151912035,0.000000000,0.000000000,-0.024543698,0.000000000
1707670562.850162,,,1707670562.850034714,0.000000000,-0.151912035,0.000000000,0.000000000,-0.024543698,0.000000000
1707670562.852594,,,1707670562.852173090,0.000000000,-0.151912035,0.000000000,0.000000000,-0.024543698,0.000000000
1707670562.854374,,,1707670562.854204416,0.000000000,-0.151912035,0.000000000,0.000000000,-0.024543698,0.000000000
1707670562.856630,,,1707670562.856062651,0.000000000,-0.151912035,0.000000000,0.000000000,-0.024543698,0.000000000
1707670562.858327,,,1707670562.858194590,0.000000000,-0.151912035,0.000000000,0.000000000,-0.024543698,0.000000000
1707670562.860653,,,1707670562.860378981,0.000000000,-0.151912035,0.000000000,0.000000000,-0.024543698,0.000000000
1707670562.863366,,,1707670562.862659693,0.000000000,-0.151912035,0.000000000,0.000000000,-0.024543698,0.000000000
1707670562.865505,,,1707670562.864786148,0.000000000,-0.151912035,0.000000000,0.000000000,-0.024543698,0.000000000
