__time,/effort_control/data.0,/effort_control/layout/data_offset,/joint_states/header/stamp,/joint_states/joint0/effort,/joint_states/joint0/position,/joint_states/joint0/velocity,/joint_states/joint1/effort,/joint_states/joint1/position,/joint_states/joint1/velocity
1707741750.575683,,,1707741750.575348139,0.000000000,327.495718297,0.000000000,0.000000000,0.018455320,0.000000000
1707741750.577919,,,1707741750.577257633,0.000000000,327.495718297,0.000000000,0.000000000,0.018455320,0.000000000
1707741750.579706,,,1707741750.579343081,0.000000000,327.495718297,0.000000000,0.000000000,0.018455320,0.000000000
1707741750.581929,,,1707741750.581335783,0.000000000,327.495718297,0.000000000,0.000000000,0.018455320,0.000000000
1707741750.583660,,,1707741750.583273649,0.000000000,327.495718297,0.000000000,0.000000000,0.018455320,0.000000000
1707741750.585938,,,1707741750.585335732,0.000000000,327.495718297,0.000000000,0.000000000,0.018455320,0.000000000
1707741750.587656,,,1707741750.587336302,0.000000000,327.495718297,0.000000000,0.000000000,0.018455320,0.000000000
1707741750.589930,,,1707741750.589220524,0.000000000,327.495718297,0.000000000,0.000000000,0.018455320,0.000000000
1707741750.591607,,,1707741750.591292381,0.000000000,327.495718297,0.000000000,0.000000000,0.018455320,0.000000000
1707741750.593832,,,1707741750.593383551,0.000000000,327.495718297,0.000000000,0.000000000,0.018455320,0.000000000
1707741750.595599,,,1707741750.595354080,0.000000000,327.495718297,0.000000000,0.000000000,0.018455320,0.000000000
1707741750.597840,,,1707741750.597357750,0.000000000,327.495718297,0.000000000,0.000000000,0.018455320,0.000000000
1707741750.599571,,,1707741750.599243402,0.000000000,327.495718297,0.000000000,0.000000000,0.018455320,0.000000000
1707741750.601814,,,1707741750.601397753,0.000000000,327.495718297,0.000000000,0.000000000,0.018455320,0.000000000
1707741750.603553,,,1707741750.603345871,0.000000000,327.495718297,0.000000000,0.000000000,0.018455320,0.000000000
1707741750.605810,,,1707741750.605340481,0.000000000,327.495718297,0.000000000,0.000000000,0.018455320,0.000000000
1707741750.607515,,,1707741750.607296228,0.000000000,327.495718297,0.000000000,0.000000000,0.018455320,0.000000000
1707741750.609725,,,1707741750.609432220,0.000000000,327.495718297,0.000000000,0.000000000,0.018455320,0.000000000
1707741750.611431,,,1707741750.611330509,0.000000000,327.495718297,0.000000000,0.000000000,0.018455320,0.000000000
1707741750.613747,,,1707741750.613343954,0.000000000,327.495718297,0.000000000,0.000000000,0.018455320,0.000000000
1707741750.616000,,,1707741750.615437508,0.000000000,327.495718297,0.000000000,0.000000000,0.018455320,0.000000000
1707741750.617805,,,1707741750.617381334,0.000000000,327.495718297,0.000000000,0.000000000,0.018455320,0.000000000
1707741750.619485,,,1707741750.619249582,0.000000000,327.495718297,0.000000000,0.000000000,0.018455320,0.000000000
1707741750.621751,,,1707741750.621380091,0.000000000,327.495718297,0.000000000,0.000000000,0.018455320,0.000000000
1707741750.623516,,,1707741750.623248339,0.000000000,327.495718297,0.000000000,0.000000000,0.018455320,0.000000000
1707741750.625710,,,1707741750.625348330,0.000000000,327.495718297,0.000000000,0.000000000,0.018455320,0.000000000
1707741750.627593,,,1707741750.627248287,0.000000000,327.495718297,0.000000000,0.000000000,0.018455320,0.000000000
1707741750.629943,,,1707741750.629346848,0.000000000,327.495718297,0.000000000,0.000000000,0.018455320,0.000000000
1707741750.631591,,,1707741750.631350279,0.000000000,327.495718297,0.000000000,0.000000000,0.018455320,0.000000000
1707741750.633871,,,1707741750.633333921,0.000000000,327.495718297,0.000000000,0.000000000,0.018455320,0.000000000
1707741750.635578,,,1707741750.635346174,0.000000000,327.495718297,0.000000000,0.000000000,0.018455320,0.000000000
1707741750.637866,,,1707741750.637344122,0.000000000,327.495718297,0.000000000,0.000000000,0.018455320,0.000000000
1707741750.639608,,,1707741750.639247894,0.000000000,327.495718297,0.000000000,0.000000000,0.018455320,0.000000000
1707741750.640731,0.050264160,0.000000000,,,,,,,
1707741750.641874,,,1707741750.641258955,0.000000000,327.495718297,0.000000000,0.000000000,0.018455320,0.000000000
1707741750.642696,0.100520382,0.000000000,,,,,,,
1707741750.643577,,,1707741750.643244982,0.000000000,327.495718297,0.000000000,0.000000000,0.018455320,0.000000000
1707741750.644727,0.150760731,0.000000000,,,,,,,
1707741750.645748,,,1707741750.645376921,0.000000000,327.495718297,0.000000000,0.000000000,0.018455320,0.000000000
1707741750.646656,0.200977273,0.000000000,,,,,,,
1707741750.648101,,,1707741750.647430420,0.000000000,327.495718297,0.000000000,0.000000000,0.018455320,0.000000000
1707741750.648738,0.251162078,0.000000000,,,,,,,
1707741750.649733,,,1707741750.649335384,0.000000000,327.495718297,0.000000000,0.000000000,0.018455320,0.000000000
1707741750.650706,0.301307222,0.000000000,,,,,,,
1707741750.652006,,,1707741750.651356220,0.000000000,327.495718297,0.000000000,0.000000000,0.018455320,0.000000000
1707741750.652739,0.351404786,0.000000000,,,,,,,
1707741750.653739,,,1707741750.653334618,0.000000000,327.495718297,0.000000000,0.000000000,0.018455320,0.000000000
1707741750.654714,0.401446859,0.000000000,,,,,,,
1707741750.656002,,,1707741750.655348301,0.000000000,327.495718297,0.000000000,0.000000000,0.018403638,-0.005992113
1707741750.656780,0.451425539,0.000000000,,,,,,,
1707741750.657685,,,1707741750.657339096,0.000000000,327.496341477,0.005992113,0.000000000,0.018391654,-0.005992113
1707741750.658741,0.501332934,0.000000000,,,,,,,
1707741750.659947,,,1707741750.659347296,0.000000000,327.497276247,0.095873805,0.000000000,0.017640393,-0.077897468
1707741750.660739,0.551161163,0.000000000,,,,,,,
1707741750.661735,,,1707741750.661395550,0.000000000,327.498354827,0.173771273,0.000000000,0.016719106,-0.155794935
1707741750.662698,0.600902356,0.000000000,,,,,,,
1707741750.664250,,,1707741750.663417816,0.000000000,327.499289596,0.251668746,0.000000000,0.015595584,-0.251668746
1707741750.664953,0.650548661,0.000000000,,,,,,,
1707741750.666595,,,1707741750.666079998,0.000000000,327.501231041,0.371510995,0.000000000,0.014259343,-0.317581983
1707741750.666715,0.700092236,0.000000000,,,,,,,
1707741750.668329,,,1707741750.667870760,0.000000000,327.502573274,0.461392706,0.000000000,0.012991263,-0.401471581
1707741750.668752,0.749525258,0.000000000,,,,,,,
1707741750.670031,,,1707741750.669654608,0.000000000,327.504059318,0.527305943,0.000000000,0.011653523,-0.467384818
1707741750.670735,0.798839922,0.000000000,,,,,,,
1707741750.671714,,,1707741750.671262264,0.000000000,327.505785046,0.623179742,0.000000000,0.010450607,-0.515321718
1707741750.672753,0.848028440,0.000000000,,,,,,,
1707741750.673958,,,1707741750.673371792,0.000000000,327.508038081,0.719053541,0.000000000,0.008551107,-0.605203405
1707741750.675030,0.897083044,0.000000000,,,,,,,
1707741750.676316,,,1707741750.675766468,0.000000000,327.510914294,0.844887949,0.000000000,0.006204446,-0.695085091
1707741750.676749,0.945995988,0.000000000,,,,,,,
1707741750.678043,,,1707741750.677585840,0.000000000,327.513478919,0.952745974,0.000000000,0.004329664,-0.772982553
1707741750.678712,0.994759549,0.000000000,,,,,,,
1707741750.679696,,,1707741750.679408312,0.000000000,327.516331164,1.066596110,0.000000000,0.002120073,-0.856872174
1707741750.680782,1.043366025,0.000000000,,,,,,,
1707741750.681977,,,1707741750.681389093,0.000000000,327.519399126,1.186438359,0.000000000,-0.000299243,-0.940761749
1707741750.682747,1.091807742,0.000000000,,,,,,,
1707741750.683668,,,1707741750.683384180,0.000000000,327.522850582,1.306280608,0.000000000,-0.003014419,-1.030643435
1707741750.684789,1.140077050,0.000000000,,,,,,,
1707741750.685884,,,1707741750.685334921,0.000000000,327.526565692,1.432114970,0.000000000,-0.006017216,-1.132509347
1707741750.686782,1.188166326,0.000000000,,,,,,,
1707741750.687592,,,1707741750.687240839,0.000000000,327.530784139,1.575925762,0.000000000,-0.009109895,-1.222391034
1707741750.688783,1.236067977,0.000000000,,,,,,,
1707741750.689782,,,1707741750.689358950,0.000000000,327.535146397,1.695768011,0.000000000,-0.012553862,-1.336241171
1707741750.690790,1.283774439,0.000000000,,,,,,,
1707741750.691500,,,1707741750.691344023,0.000000000,327.539460718,1.809618148,0.000000000,-0.016101192,-1.426122857
1707741750.693056,1.331278178,0.000000000,,,,,,,
1707741750.694170,,,1707741750.693655252,0.000000000,327.545404894,1.947436734,0.000000000,-0.020558575,-1.539972994
1707741750.694780,1.378571693,0.000000000,,,,,,,
1707741750.695800,,,1707741750.695433378,0.000000000,327.550222552,2.127200108,0.000000000,-0.024062463,-1.629854774
1707741750.696785,1.425647515,0.000000000,,,,,,,
1707741750.697544,,,1707741750.697357416,0.000000000,327.555303864,2.241050245,0.000000000,-0.027894419,-1.719736461
1707741750.698762,1.472498211,0.000000000,,,,,,,
1707741750.699777,,,1707741750.699384451,0.000000000,327.561080260,2.384860943,0.000000000,-0.032409475,-1.827594485
1707741750.700755,1.519116382,0.000000000,,,,,,,
1707741750.701964,,,1707741750.701371670,0.000000000,327.566976499,2.510695305,0.000000000,-0.037284059,-1.965413072
1707741750.702757,1.565494667,0.000000000,,,,,,,
1707741750.703675,,,1707741750.703282833,0.000000000,327.573280201,2.648513891,0.000000000,-0.042162387,-2.067278983
1707741750.705040,1.611625743,0.000000000,,,,,,,
1707741750.706234,,,1707741750.705818892,0.000000000,327.581621221,2.822285152,0.000000000,-0.048478823,-2.193113345
1707741750.706737,1.657502324,0.000000000,,,,,,,
1707741750.707907,,,1707741750.707597494,0.000000000,327.587661271,2.960103739,0.000000000,-0.053115969,-2.277002919
1707741750.708752,1.703117166,0.000000000,,,,,,,
1707741750.709595,,,1707741750.709367275,0.000000000,327.594084815,3.091930213,0.000000000,-0.058073693,-2.384860943
1707741750.710741,1.748463067,0.000000000,,,,,,,
1707741750.711821,,,1707741750.711347818,0.000000000,327.601586940,3.229748987,0.000000000,-0.063945214,-2.510695305
1707741750.712744,1.793532864,0.000000000,,,,,,,
1707741750.713505,,,1707741750.713341713,0.000000000,327.609400655,3.385543910,0.000000000,-0.069827971,-2.600576992
1707741750.714745,1.838319442,0.000000000,,,,,,,
1707741750.715756,,,1707741750.715377331,0.000000000,327.617501991,3.523362497,0.000000000,-0.075953408,-2.696450791
1707741750.716746,1.882815729,0.000000000,,,,,,,
1707741750.718005,,,1707741750.717377901,0.000000000,327.625938885,3.673165308,0.000000000,-0.082183707,-2.792324590
1707741750.718756,1.927014696,0.000000000,,,,,,,
1707741750.719696,,,1707741750.719241858,0.000000000,327.634639432,3.810983894,0.000000000,-0.088894123,-2.912166839
1707741750.720743,1.970909366,0.000000000,,,,,,,
1707741750.722088,,,1707741750.721359968,0.000000000,327.643795380,3.990747268,0.000000000,-0.095726630,-3.032009088
1707741750.722740,2.014492807,0.000000000,,,,,,,
1707741750.723898,,,1707741750.723260880,0.000000000,327.653143076,4.146542192,0.000000000,-0.102713433,-3.121890775
1707741750.724746,2.057758135,0.000000000,,,,,,,
1707741750.725699,,,1707741750.725336790,0.000000000,327.662874266,4.302337116,0.000000000,-0.110430525,-3.283677999
1707741750.726742,2.100698520,0.000000000,,,,,,,
1707741750.727543,,,1707741750.727366447,0.000000000,327.673228637,4.488092602,0.000000000,-0.117994069,-3.391536023
1707741750.728762,2.143307180,0.000000000,,,,,,,
1707741750.729962,,,1707741750.729359627,0.000000000,327.683918565,4.673848088,0.000000000,-0.125932120,-3.523362497
1707741750.730761,2.185577387,0.000000000,,,,,,,
1707741750.731809,,,1707741750.731382370,0.000000000,327.695039926,4.865595686,0.000000000,-0.134664125,-3.697133758
1707741750.732733,2.227502466,0.000000000,,,,,,,
1707741750.733547,,,1707741750.733337164,0.000000000,327.707048119,5.105280184,0.000000000,-0.143623083,-3.876897131
1707741750.734755,2.269075797,0.000000000,,,,,,,
1707741750.735962,,,1707741750.735285282,0.000000000,327.719319966,5.332980457,0.000000000,-0.152734090,-4.020707830
1707741750.736741,2.310290814,0.000000000,,,,,,,
1707741750.737723,,,1707741750.737396479,0.000000000,327.733149761,5.596633405,0.000000000,-0.163149879,-4.218447541
1707741750.738724,2.351141009,0.000000000,,,,,,,
1707741750.739537,,,1707741750.739375830,0.000000000,327.745781134,5.830325791,0.000000000,-0.172339532,-4.368250353
1707741750.740738,2.391619932,0.000000000,,,,,,,
1707741750.741861,,,1707741750.741342306,0.000000000,327.759515056,6.064018177,0.000000000,-0.182373325,-4.500076826
1707741750.743015,2.431721191,0.000000000,,,,,,,
1707741750.744512,,,1707741750.744113684,0.000000000,327.777035993,6.285726712,0.000000000,-0.195344001,-4.679840200
1707741750.744713,2.471438452,0.000000000,,,,,,,
1707741750.746368,,,1707741750.745804787,0.000000000,327.791512936,6.513426985,0.000000000,-0.206308081,-4.859603574
1707741750.746715,2.510765445,0.000000000,,,,,,,
1707741750.748159,,,1707741750.747522831,0.000000000,327.804767489,6.717158808,0.000000000,-0.215913437,-4.985437935
1707741750.748736,2.549695959,0.000000000,,,,,,,
1707741750.750018,,,1707741750.749361277,0.000000000,327.818046010,6.890930070,0.000000000,-0.225398202,-5.063335397
1707741750.751015,2.588223846,0.000000000,,,,,,,
1707741750.752213,,,1707741750.751745939,0.000000000,327.835758695,7.034740768,0.000000000,-0.238590586,-5.189169759
1707741750.752789,2.626343023,0.000000000,,,,,,,
1707741750.754077,,,1707741750.753406525,0.000000000,327.849396743,7.178551467,0.000000000,-0.248427388,-5.267067220
1707741750.754704,2.664047470,0.000000000,,,,,,,
1707741750.755908,,,1707741750.755437374,0.000000000,327.865887036,7.406251741,0.000000000,-0.260345700,-5.416870032
1707741750.756732,2.701331232,0.000000000,,,,,,,
1707741750.757722,,,1707741750.757380486,0.000000000,327.881778118,7.621967789,0.000000000,-0.271849058,-5.560680731
1707741750.758701,2.738188424,0.000000000,,,,,,,
1707741750.759496,,,1707741750.759349585,0.000000000,327.898795718,7.837683837,0.000000000,-0.284517881,-5.734451992
1707741750.760726,2.774613223,0.000000000,,,,,,,
1707741750.761893,,,1707741750.761364222,0.000000000,327.916244749,8.017447211,0.000000000,-0.297471330,-5.896239028
1707741750.762731,2.810599879,0.000000000,,,,,,,
1707741750.763622,,,1707741750.763405800,0.000000000,327.933933465,8.191218472,0.000000000,-0.310059261,-5.986120715
1707741750.764708,2.846142709,0.000000000,,,,,,,
1707741750.765904,,,1707741750.765372515,0.000000000,327.951670118,8.347013396,0.000000000,-0.323122815,-6.105962964
1707741750.767035,2.881236100,0.000000000,,,,,,,
1707741750.768161,,,1707741750.767836094,0.000000000,327.973769029,8.472847757,0.000000000,-0.339365185,-6.213820988
1707741750.768746,2.915874510,0.000000000,,,,,,,
1707741750.769937,,,1707741750.769596100,0.000000000,327.989300584,8.562729444,0.000000000,-0.350877531,-6.285726712
1707741750.770783,2.950052469,0.000000000,,,,,,,
1707741750.771591,,,1707741750.771415949,0.000000000,328.004736266,8.604674231,0.000000000,-0.362590613,-6.345647836
1707741750.772747,2.983764582,0.000000000,,,,,,,
1707741750.773907,,,1707741750.773347378,0.000000000,328.022616729,8.682571693,0.000000000,-0.375938792,-6.435529523
1707741750.774781,3.017005523,0.000000000,,,,,,,
1707741750.775600,,,1707741750.775259018,0.000000000,328.040593067,8.748484930,0.000000000,-0.389401571,-6.489458535
1707741750.776773,3.049770044,0.000000000,,,,,,,
1707741750.777903,,,1707741750.777390480,0.000000000,328.058904963,8.826382392,0.000000000,-0.403020168,-6.573348110
1707741750.778730,3.082052971,0.000000000,,,,,,,
1707741750.779504,,,1707741750.779336929,0.000000000,328.077480511,8.934240416,0.000000000,-0.416475456,-6.591324447
1707741750.780749,3.113849206,0.000000000,,,,,,,
1707741750.781714,,,1707741750.781435728,0.000000000,328.097494167,9.048090553,0.000000000,-0.431154634,-6.675214021
1707741750.782780,3.145153729,0.000000000,,,,,,,
1707741750.784104,,,1707741750.783446550,0.000000000,328.116477179,9.137972239,0.000000000,-0.444898293,-6.723150921
1707741750.784742,3.175961595,0.000000000,,,,,,,
1707741750.785774,,,1707741750.785404205,0.000000000,328.134597327,9.245830263,0.000000000,-0.457896683,-6.747119371
1707741750.786727,3.206267939,0.000000000,,,,,,,
1707741750.787567,,,1707741750.787343740,0.000000000,328.154179551,9.359680400,0.000000000,-0.471980394,-6.825016833
1707741750.788783,3.236067977,0.000000000,,,,,,,
1707741750.789971,,,1707741750.789525032,0.000000000,328.175894966,9.449562087,0.000000000,-0.487503710,-6.837001058
1707741750.790782,3.265357003,0.000000000,,,,,,,
1707741750.791767,,,1707741750.791443586,0.000000000,328.194134956,9.503491099,0.000000000,-0.500269157,-6.831008945
1707741750.792746,3.294130391,0.000000000,,,,,,,
1707741750.793439,,,1707741750.793342590,0.000000000,328.212638600,9.575396448,0.000000000,-0.514057008,-6.944859082
1707741750.795034,3.322383597,0.000000000,,,,,,,
1707741750.796222,,,1707741750.795674324,0.000000000,328.236295460,9.671270248,0.000000000,-0.531260362,-7.010772319
1707741750.796744,3.350112160,0.000000000,,,,,,,
1707741750.797928,,,1707741750.797435522,0.000000000,328.254127986,9.761151934,0.000000000,-0.544387583,-7.100654005
1707741750.798756,3.377311702,0.000000000,,,,,,,
1707741750.799690,,,1707741750.799519300,0.000000000,328.273877989,9.916946858,0.000000000,-0.559328166,-7.274425267
1707741750.800740,3.403977927,0.000000000,,,,,,,
1707741750.801489,,,1707741750.801361084,0.000000000,328.295353720,10.096710232,0.000000000,-0.575015517,-7.406251741
1707741750.802781,3.430106625,0.000000000,,,,,,,
1707741750.803886,,,1707741750.803526402,0.000000000,328.318579148,10.288457830,0.000000000,-0.591522288,-7.490141315
1707741750.804828,3.455693669,0.000000000,,,,,,,
1707741750.805588,,,1707741750.805359840,0.000000000,328.339431699,10.456236979,0.000000000,-0.606499573,-7.592007227
1707741750.806858,3.480735019,0.000000000,,,,,,,
1707741750.808055,,,1707741750.807419777,0.000000000,328.363088559,10.618024015,0.000000000,-0.622774151,-7.603991451
1707741750.808792,3.505226720,0.000000000,,,,,,,
1707741750.809867,,,1707741750.809350014,0.000000000,328.383941110,10.719889927,0.000000000,-0.637686272,-7.675896801
1707741750.810783,3.529164906,0.000000000,,,,,,,
1707741750.811680,,,1707741750.811388731,0.000000000,328.406399548,10.839732176,0.000000000,-0.654031256,-7.783754825
1707741750.812752,3.552545795,0.000000000,,,,,,,
1707741750.813996,,,1707741750.813443184,0.000000000,328.429025764,10.929613863,0.000000000,-0.670696819,-7.819707500
1707741750.814775,3.575365697,0.000000000,,,,,,,
1707741750.815759,,,1707741750.815385342,0.000000000,328.451651981,11.025487662,0.000000000,-0.686008913,-7.867644399
1707741750.816783,3.597621006,0.000000000,,,,,,,
1707741750.817557,,,1707741750.817399502,0.000000000,328.474613756,11.115369349,0.000000000,-0.702404831,-7.939549749
1707741750.818874,3.619308210,0.000000000,,,,,,,
1707741750.819954,,,1707741750.819695711,0.000000000,328.500715398,11.235211598,0.000000000,-0.722007278,-8.023439323
1707741750.820774,3.640423883,0.000000000,,,,,,,
1707741750.821846,,,1707741750.821693897,0.000000000,328.523964794,11.319101172,0.000000000,-0.737561304,-8.083360448
1707741750.822778,3.660964690,0.000000000,,,,,,,
1707741750.823606,,,1707741750.823385954,0.000000000,328.545967831,11.414974971,0.000000000,-0.753392465,-8.149273685
1707741750.824735,3.680927389,0.000000000,,,,,,,
1707741750.826097,,,1707741750.825394630,0.000000000,328.567922931,11.462911871,0.000000000,-0.769037871,-8.209194809
1707741750.826716,3.700308827,0.000000000,,,,,,,
1707741750.827894,,,1707741750.827383757,0.000000000,328.591364075,11.522832996,0.000000000,-0.786191088,-8.263123821
1707741750.828785,3.719105944,0.000000000,,,,,,,
1707741750.829663,,,1707741750.829384804,0.000000000,328.614661408,11.552793558,0.000000000,-0.803640120,-8.376973958
1707741750.830782,3.737315770,0.000000000,,,,,,,
1707741750.831996,,,1707741750.831383705,0.000000000,328.637958741,11.594738345,0.000000000,-0.820524395,-8.394950295
