__time,/effort_control/data.0,/effort_control/layout/data_offset,/joint_states/header/stamp,/joint_states/joint0/effort,/joint_states/joint0/position,/joint_states/joint0/velocity,/joint_states/joint1/effort,/joint_states/joint1/position,/joint_states/joint1/velocity
1707744783.065725,,,1707744783.065283775,0.000000000,79.308310754,0.000000000,0.000000000,-18.867232653,0.000000000
1707744783.068057,,,1707744783.067686319,0.000000000,79.308310754,0.000000000,0.000000000,-18.867232653,0.000000000
1707744783.069819,,,1707744783.069399118,0.000000000,79.308310754,0.000000000,0.000000000,-18.867232653,0.000000000
1707744783.071562,,,1707744783.071283579,0.000000000,79.308310754,0.000000000,0.000000000,-18.867232653,0.000000000
1707744783.073871,,,1707744783.073285341,0.000000000,79.308310754,0.000000000,0.000000000,-18.867232653,0.000000000
1707744783.075627,,,1707744783.075325012,0.000000000,79.308310754,0.000000000,0.000000000,-18.867232653,0.000000000
1707744783.077930,,,1707744783.077264786,0.000000000,79.308310754,0.000000000,0.000000000,-18.867232653,0.000000000
1707744783.079662,,,1707744783.079278946,0.000000000,79.308310754,0.000000000,0.000000000,-18.867232653,0.000000000
1707744783.081929,,,1707744783.081327200,0.000000000,79.308310754,0.000000000,0.000000000,-18.867232653,0.000000000
1707744783.083681,,,1707744783.083284855,0.000000000,79.308310754,0.000000000,0.000000000,-18.867232653,0.000000000
1707744783.085423,,,1707744783.085276842,0.000000000,79.308310754,0.000000000,0.000000000,-18.867232653,0.000000000
1707744783.087723,,,1707744783.087252617,0.000000000,79.308310754,0.000000000,0.000000000,-18.867232653,0.000000000
1707744783.089467,,,1707744783.089368105,0.000000000,79.308310754,0.000000000,0.000000000,-18.867232653,0.000000000
1707744783.091831,,,1707744783.091368675,0.000000000,79.308310754,0.000000000,0.000000000,-18.867232653,0.000000000
1707744783.093586,,,1707744783.093368769,0.000000000,79.308310754,0.000000000,0.000000000,-18.867232653,0.000000000
1707744783.095890,,,1707744783.095279694,0.000000000,79.308310754,0.000000000,0.000000000,-18.867232653,0.000000000
1707744783.097618,,,1707744783.097248793,0.000000000,79.308310754,0.000000000,0.000000000,-18.867232653,0.000000000
1707744783.099925,,,1707744783.099283218,0.000000000,79.308310754,0.000000000,0.000000000,-18.867232653,0.000000000
1707744783.101666,,,1707744783.101261139,0.000000000,79.308310754,0.000000000,0.000000000,-18.867232653,0.000000000
1707744783.103975,,,1707744783.103368759,0.000000000,79.308310754,0.000000000,0.000000000,-18.867232653,0.000000000
1707744783.105722,,,1707744783.105290890,0.000000000,79.308310754,0.000000000,0.000000000,-18.867232653,0.000000000
1707744783.107465,,,1707744783.107278109,0.000000000,79.308310754,0.000000000,0.000000000,-18.867232653,0.000000000
1707744783.109804,,,1707744783.109398127,0.000000000,79.308310754,0.000000000,0.000000000,-18.867232653,0.000000000
1707744783.111541,,,1707744783.111293793,0.000000000,79.308310754,0.000000000,0.000000000,-18.867232653,0.000000000
1707744783.113839,,,1707744783.113268852,0.000000000,79.308310754,0.000000000,0.000000000,-18.867232653,0.000000000
1707744783.115541,,,1707744783.115396976,0.000000000,79.308310754,0.000000000,0.000000000,-18.867232653,0.000000000
1707744783.117845,,,1707744783.117321253,0.000000000,79.308310754,0.000000000,0.000000000,-18.867232653,0.000000000
1707744783.119594,,,1707744783.119271278,0.000000000,79.308310754,0.000000000,0.000000000,-18.867232653,0.000000000
1707744783.121909,,,1707744783.121424198,0.000000000,79.308310754,0.000000000,0.000000000,-18.867232653,0.000000000
1707744783.123693,,,1707744783.123272181,0.000000000,79.308310754,0.000000000,0.000000000,-18.867232653,0.000000000
1707744783.125424,,,1707744783.125303268,0.000000000,79.308310754,0.000000000,0.000000000,-18.867232653,0.000000000
1707744783.127712,,,1707744783.127261877,0.000000000,79.308310754,0.000000000,0.000000000,-18.867232653,0.000000000
1707744783.129460,,,1707744783.129296064,0.000000000,79.308310754,0.000000000,0.000000000,-18.867232653,0.000000000
1707744783.131731,,,1707744783.131396055,0.000000000,79.308310754,0.000000000,0.000000000,-18.867232653,0.000000000
1707744783.133474,,,1707744783.133271933,0.000000000,79.308310754,0.000000000,0.000000000,-18.867232653,0.000000000
1707744783.135823,,,1707744783.135400534,0.000000000,79.308310754,0.000000000,0.000000000,-18.867232653,0.000000000
1707744783.138098,,,1707744783.137750864,0.000000000,79.308310754,0.000000000,0.000000000,-18.867232653,0.000000000
1707744783.139838,,,1707744783.139394283,0.000000000,79.308310754,0.000000000,0.000000000,-18.867232653,0.000000000
1707744783.141582,,,1707744783.141256094,0.000000000,79.308310754,0.000000000,0.000000000,-18.867232653,0.000000000
1707744783.143963,,,1707744783.143283606,0.000000000,79.308310754,0.000000000,0.000000000,-18.867232653,0.000000000
1707744783.145768,,,1707744783.145393610,0.000000000,79.308310754,0.000000000,0.000000000,-18.867232653,0.000000000
1707744783.147616,,,1707744783.147259712,0.000000000,79.308310754,0.000000000,0.000000000,-18.867232653,0.000000000
1707744783.149473,,,1707744783.149267197,0.000000000,79.308310754,0.000000000,0.000000000,-18.867232653,0.000000000
1707744783.151786,,,1707744783.151333332,0.000000000,79.308310754,0.000000000,0.000000000,-18.867232653,0.000000000
1707744783.153592,,,1707744783.153293133,0.000000000,79.308310754,0.000000000,0.000000000,-18.867232653,0.000000000
1707744783.156028,,,1707744783.155552626,0.000000000,79.308310754,0.000000000,0.000000000,-18.867232653,0.000000000
1707744783.157749,,,1707744783.157259226,0.000000000,79.308310754,0.000000000,0.000000000,-18.867232653,0.000000000
1707744783.160061,,,1707744783.159508944,0.000000000,79.308310754,0.000000000,0.000000000,-18.867232653,0.000000000
1707744783.161813,,,1707744783.161268950,0.000000000,79.308310754,0.000000000,0.000000000,-18.867232653,0.000000000
1707744783.163566,,,1707744783.163396120,0.000000000,79.308310754,0.000000000,0.000000000,-18.867232653,0.000000000
1707744783.165873,,,1707744783.165258646,0.000000000,79.308310754,0.000000000,0.000000000,-18.867232653,0.000000000
1707744783.168154,,,1707744783.168000460,0.000000000,79.308310754,0.000000000,0.000000000,-18.867232653,0.000000000
1707744783.169885,,,1707744783.169792891,0.000000000,79.308310754,0.000000000,0.000000000,-18.867232653,0.000000000
1707744783.171665,,,1707744783.171508789,0.000000000,79.308310754,0.000000000,0.000000000,-18.867232653,0.000000000
1707744783.173437,,,1707744783.173273802,0.000000000,79.308310754,0.000000000,0.000000000,-18.867232653,0.000000000
1707744783.175753,,,1707744783.175293446,0.000000000,79.308310754,0.000000000,0.000000000,-18.867232653,0.000000000
1707744783.178084,,,1707744783.177398682,0.000000000,79.308310754,0.000000000,0.000000000,-18.867232653,0.000000000
1707744783.179788,,,1707744783.179268599,0.000000000,79.308310754,0.000000000,0.000000000,-18.867232653,0.000000000
1707744783.181525,,,1707744783.181282282,0.000000000,79.308310754,0.000000000,0.000000000,-18.867232653,0.000000000
1707744783.183808,,,1707744783.183407068,0.000000000,79.308310754,0.000000000,0.000000000,-18.867232653,0.000000000
1707744783.185525,,,1707744783.185298204,0.000000000,79.308310754,0.000000000,0.000000000,-18.867232653,0.000000000
1707744783.187808,,,1707744783.187307358,0.000000000,79.308310754,0.000000000,0.000000000,-18.867232653,0.000000000
1707744783.189529,,,1707744783.189396381,0.000000000,79.308310754,0.000000000,0.000000000,-18.867232653,0.000000000
1707744783.191789,,,1707744783.191307306,0.000000000,79.308310754,0.000000000,0.000000000,-18.867232653,0.000000000
1707744783.193564,,,1707744783.193277359,0.000000000,79.308310754,0.000000000,0.000000000,-18.867232653,0.000000000
1707744783.195842,,,1707744783.195323944,0.000000000,79.308310754,0.000000000,0.000000000,-18.867232653,0.000000000
1707744783.197575,,,1707744783.197282314,0.000000000,79.308310754,0.000000000,0.000000000,-18.867232653,0.000000000
1707744783.199850,,,1707744783.199334621,0.000000000,79.308310754,0.000000000,0.000000000,-18.867232653,0.000000000
1707744783.201581,,,1707744783.201308727,0.000000000,79.308310754,0.000000000,0.000000000,-18.867232653,0.000000000
1707744783.203852,,,1707744783.203445435,0.000000000,79.308310754,0.000000000,0.000000000,-18.867232653,0.000000000
1707744783.205591,,,1707744783.205272436,0.000000000,79.308310754,0.000000000,0.000000000,-18.867232653,0.000000000
1707744783.207982,,,1707744783.207394361,0.000000000,79.308310754,0.000000000,0.000000000,-18.867232653,0.000000000
1707744783.209840,,,1707744783.209270239,0.000000000,79.308310754,0.000000000,0.000000000,-18.867232653,0.000000000
1707744783.211669,,,1707744783.211455345,0.000000000,79.308310754,0.000000000,0.000000000,-18.867232653,0.000000000
1707744783.213515,,,1707744783.213293076,0.000000000,79.308310754,0.000000000,0.000000000,-18.867232653,0.000000000
1707744783.215821,,,1707744783.215314865,0.000000000,79.308310754,0.000000000,0.000000000,-18.867232653,0.000000000
1707744783.217540,,,1707744783.217373133,0.000000000,79.308310754,0.000000000,0.000000000,-18.867232653,0.000000000
1707744783.219805,,,1707744783.219397306,0.000000000,79.308310754,0.000000000,0.000000000,-18.867232653,0.000000000
1707744783.221515,,,1707744783.221316099,0.000000000,79.308310754,0.000000000,0.000000000,-18.867232653,0.000000000
1707744783.223868,,,1707744783.223295689,0.000000000,79.308310754,0.000000000,0.000000000,-18.867232653,0.000000000
1707744783.225616,,,1707744783.225403309,0.000000000,79.308310754,0.000000000,0.000000000,-18.867232653,0.000000000
1707744783.227897,,,1707744783.227271318,0.000000000,79.308310754,0.000000000,0.000000000,-18.867232653,0.000000000
1707744783.229611,,,1707744783.229395390,0.000000000,79.308310754,0.000000000,0.000000000,-18.867232653,0.000000000
1707744783.231907,,,1707744783.231399298,0.000000000,79.308310754,0.000000000,0.000000000,-18.867232653,0.000000000
1707744783.233596,,,1707744783.233354330,0.000000000,79.308310754,0.000000000,0.000000000,-18.867232653,0.000000000
1707744783.235912,,,1707744783.235292435,0.000000000,79.308310754,0.000000000,0.000000000,-18.867232653,0.000000000
1707744783.237623,,,1707744783.237405539,0.000000000,79.308310754,0.000000000,0.000000000,-18.867232653,0.000000000
1707744783.239406,,,1707744783.239288092,0.000000000,79.308310754,0.000000000,0.000000000,-18.867232653,0.000000000
1707744783.241704,,,1707744783.241471291,0.000000000,79.308310754,0.000000000,0.000000000,-18.867232653,0.000000000
1707744783.243308,0.012566040,0.000000000,,,,,,,
1707744783.244030,,,1707744783.243398666,0.000000000,79.308310754,0.000000000,0.000000000,-18.867232653,0.000000000
1707744783.245349,0.025130095,0.000000000,,,,,,,
1707744783.245755,,,1707744783.245291710,0.000000000,79.308310754,0.000000000,0.000000000,-18.867232653,0.000000000
1707744783.247272,0.037690183,0.000000000,,,,,,,
1707744783.248049,,,1707744783.247405767,0.000000000,79.308310754,0.000000000,0.000000000,-18.867232653,0.000000000
1707744783.249326,0.050244318,0.000000000,,,,,,,
1707744783.249761,,,1707744783.249292374,0.000000000,79.308310754,0.000000000,0.000000000,-18.867232653,0.000000000
1707744783.251224,0.062790520,0.000000000,,,,,,,
1707744783.252073,,,1707744783.251432419,0.000000000,79.308310754,0.000000000,0.000000000,-18.867232653,0.000000000
1707744783.253304,0.075326806,0.000000000,,,,,,,
1707744783.253823,,,1707744783.253281593,0.000000000,79.308310754,0.000000000,0.000000000,-18.867232653,0.000000000
1707744783.255329,0.087851197,0.000000000,,,,,,,
1707744783.255568,,,1707744783.255274296,0.000000000,79.308310754,0.000000000,0.000000000,-18.867232653,0.000000000
1707744783.257358,0.100361715,0.000000000,,,,,,,
1707744783.257869,,,1707744783.257270336,0.000000000,79.308310754,0.000000000,0.000000000,-18.867232653,0.000000000
1707744783.259247,0.112856385,0.000000000,,,,,,,
1707744783.259554,,,1707744783.259412527,0.000000000,79.308310754,0.000000000,0.000000000,-18.867232653,0.000000000
1707744783.261355,0.125333234,0.000000000,,,,,,,
1707744783.261923,,,1707744783.261274576,0.000000000,79.308310754,0.000000000,0.000000000,-18.867232653,0.000000000
1707744783.263315,0.137790291,0.000000000,,,,,,,
1707744783.264210,,,1707744783.263536692,0.000000000,79.308310754,0.000000000,0.000000000,-18.867232653,0.000000000
1707744783.265357,0.150225589,0.000000000,,,,,,,
1707744783.265897,,,1707744783.265314102,0.000000000,79.308310754,0.000000000,0.000000000,-18.867232653,0.000000000
1707744783.267223,0.162637165,0.000000000,,,,,,,
1707744783.268182,,,1707744783.267540216,0.000000000,79.308310754,0.000000000,0.000000000,-18.867379460,-0.005992113
1707744783.269347,0.175023059,0.000000000,,,,,,,
1707744783.269905,,,1707744783.269445896,0.000000000,79.308358691,0.005992113,0.000000000,-18.868029604,-0.083889580
1707744783.271224,0.187381315,0.000000000,,,,,,,
1707744783.271647,,,1707744783.271270752,0.000000000,79.308358691,0.005992113,0.000000000,-18.868186897,-0.083889580
1707744783.273316,0.199709981,0.000000000,,,,,,,
1707744783.274018,,,1707744783.273334742,0.000000000,79.309053776,0.071905355,0.000000000,-18.868354676,-0.083889580
1707744783.275267,0.212007110,0.000000000,,,,,,,
1707744783.275767,,,1707744783.275527954,0.000000000,79.309305445,0.089881693,0.000000000,-18.868893966,-0.119842261
1707744783.277285,0.224270761,0.000000000,,,,,,,
1707744783.278057,,,1707744783.277397394,0.000000000,79.309916640,0.137818598,0.000000000,-18.869118671,-0.119842261
1707744783.279283,0.236498997,0.000000000,,,,,,,
1707744783.279781,,,1707744783.279294014,0.000000000,79.310186285,0.143810711,0.000000000,-18.869684925,-0.155794935
1707744783.281299,0.248689887,0.000000000,,,,,,,
1707744783.282080,,,1707744783.281375885,0.000000000,79.310875378,0.179763385,0.000000000,-18.870302113,-0.185755498
1707744783.283299,0.260841506,0.000000000,,,,,,,
1707744783.283811,,,1707744783.283397198,0.000000000,79.311600424,0.215716072,0.000000000,-18.870709577,-0.191747610
1707744783.285309,0.272951936,0.000000000,,,,,,,
1707744783.285533,,,1707744783.285306692,0.000000000,79.312337453,0.257660859,0.000000000,-18.871172467,-0.203731847
1707744783.287220,0.285019262,0.000000000,,,,,,,
1707744783.287814,,,1707744783.287302494,0.000000000,79.312984602,0.275637196,0.000000000,-18.871579931,-0.203731847
1707744783.289282,0.297041582,0.000000000,,,,,,,
1707744783.289524,,,1707744783.289275885,0.000000000,79.313559844,0.275637196,0.000000000,-18.872050312,-0.209723959
1707744783.291223,0.309016994,0.000000000,,,,,,,
1707744783.291848,,,1707744783.291321754,0.000000000,79.314230961,0.287621421,0.000000000,-18.872628551,-0.221708184
1707744783.293288,0.320943610,0.000000000,,,,,,,
1707744783.293570,,,1707744783.293282986,0.000000000,79.315105809,0.311589871,0.000000000,-18.873181323,-0.227700297
1707744783.295234,0.332819545,0.000000000,,,,,,,
1707744783.295884,,,1707744783.295282364,0.000000000,79.315872800,0.335558321,0.000000000,-18.873779036,-0.251668746
1707744783.297292,0.344642923,0.000000000,,,,,,,
1707744783.297649,,,1707744783.297420740,0.000000000,79.316837530,0.353534658,0.000000000,-18.874493596,-0.269645084
1707744783.299236,0.356411879,0.000000000,,,,,,,
1707744783.299931,,,1707744783.299337387,0.000000000,79.317604520,0.371510995,0.000000000,-18.875010415,-0.269645084
1707744783.301285,0.368124553,0.000000000,,,,,,,
1707744783.301646,,,1707744783.301374912,0.000000000,79.318653140,0.407463694,0.000000000,-18.875659061,-0.275637196
1707744783.303216,0.379779096,0.000000000,,,,,,,
1707744783.303936,,,1707744783.303435802,0.000000000,79.319617870,0.419447919,0.000000000,-18.876473989,-0.311589871
1707744783.305287,0.391373667,0.000000000,,,,,,,
1707744783.305676,,,1707744783.305441141,0.000000000,79.320624545,0.431432143,0.000000000,-18.877249967,-0.329566208
1707744783.307252,0.402906436,0.000000000,,,,,,,
1707744783.308032,,,1707744783.307462215,0.000000000,79.321661180,0.455400593,0.000000000,-18.878018456,-0.335558321
1707744783.309310,0.414375581,0.000000000,,,,,,,
1707744783.309794,,,1707744783.309293032,0.000000000,79.322703808,0.473376931,0.000000000,-18.878767470,-0.347542546
1707744783.311255,0.425779292,0.000000000,,,,,,,
1707744783.311530,,,1707744783.311270475,0.000000000,79.323806357,0.497345380,0.000000000,-18.879586891,-0.371510995
1707744783.313308,0.437115767,0.000000000,,,,,,,
1707744783.313802,,,1707744783.313289881,0.000000000,79.325220495,0.539290168,0.000000000,-18.880545629,-0.395479469
1707744783.315270,0.448383216,0.000000000,,,,,,,
1707744783.315545,,,1707744783.315293789,0.000000000,79.326454870,0.551274392,0.000000000,-18.881396509,-0.401471581
1707744783.317294,0.459579861,0.000000000,,,,,,,
1707744783.317778,,,1707744783.317372799,0.000000000,79.328072741,0.605203405,0.000000000,-18.882418164,-0.413455806
1707744783.319210,0.470703932,0.000000000,,,,,,,
1707744783.319496,,,1707744783.319284439,0.000000000,79.329606722,0.641156079,0.000000000,-18.883487756,-0.449408481
1707744783.321311,0.481753674,0.000000000,,,,,,,
1707744783.321807,,,1707744783.321270466,0.000000000,79.331284513,0.677108754,0.000000000,-18.884557348,-0.467384818
1707744783.323258,0.492727342,0.000000000,,,,,,,
1707744783.323520,,,1707744783.323374033,0.000000000,79.332872423,0.701077204,0.000000000,-18.885763261,-0.497345380
1707744783.325304,0.503623202,0.000000000,,,,,,,
1707744783.325833,,,1707744783.325277567,0.000000000,79.334454341,0.725045654,0.000000000,-18.886877794,-0.509329605
1707744783.327205,0.514439534,0.000000000,,,,,,,
1707744783.327615,,,1707744783.327286005,0.000000000,79.336138124,0.755006216,0.000000000,-18.888115165,-0.539290168
1707744783.329307,0.525174630,0.000000000,,,,,,,
1707744783.329436,,,1707744783.329276800,0.000000000,79.337815916,0.772982553,0.000000000,-18.889352536,-0.551274392
1707744783.331254,0.535826795,0.000000000,,,,,,,
1707744783.331783,,,1707744783.331285238,0.000000000,79.339631526,0.796951050,0.000000000,-18.890582417,-0.569250730
1707744783.333234,0.546394347,0.000000000,,,,,,,
1707744783.333496,,,1707744783.333281755,0.000000000,79.341501065,0.832903725,0.000000000,-18.891831773,-0.581234955
1707744783.335219,0.556875616,0.000000000,,,,,,,
1707744783.335795,,,1707744783.335398674,0.000000000,79.343490446,0.856872174,0.000000000,-18.893054164,-0.587227067
1707744783.337279,0.567268949,0.000000000,,,,,,,
1707744783.337503,,,1707744783.337275267,0.000000000,79.345461851,0.892824849,0.000000000,-18.894511745,-0.617187629
1707744783.339231,0.577572703,0.000000000,,,,,,,
1707744783.339819,,,1707744783.339373827,0.000000000,79.347427264,0.910801186,0.000000000,-18.895909405,-0.635163967
1707744783.341277,0.587785252,0.000000000,,,,,,,
1707744783.341526,,,1707744783.341279745,0.000000000,79.349524503,0.946753861,0.000000000,-18.897344516,-0.653140304
1707744783.343253,0.597904983,0.000000000,,,,,,,
1707744783.343878,,,1707744783.343283415,0.000000000,79.351441979,0.952745974,0.000000000,-18.898495002,-0.629171854
1707744783.345359,0.607930298,0.000000000,,,,,,,
1707744783.345581,,,1707744783.345368624,0.000000000,79.353605132,0.976714423,0.000000000,-18.899942097,-0.659132417
1707744783.347283,0.617859613,0.000000000,,,,,,,
1707744783.347865,,,1707744783.347398520,0.000000000,79.355984001,1.006674986,0.000000000,-18.901398180,-0.665124529
1707744783.349354,0.627691361,0.000000000,,,,,,,
1707744783.349611,,,1707744783.349287033,0.000000000,79.358141161,1.030643435,0.000000000,-18.902924671,-0.695085091
1707744783.351288,0.637423990,0.000000000,,,,,,,
1707744783.351889,,,1707744783.351464748,0.000000000,79.360621896,1.066596110,0.000000000,-18.904458652,-0.707069316
1707744783.353267,0.647055962,0.000000000,,,,,,,
1707744783.353686,,,1707744783.353403091,0.000000000,79.363000764,1.090564560,0.000000000,-18.906098993,-0.731037766
1707744783.355331,0.656585756,0.000000000,,,,,,,
