__time,/effort_control/data.0,/effort_control/layout/data_offset,/joint_states/header/stamp,/joint_states/joint0/effort,/joint_states/joint0/position,/joint_states/joint0/velocity,/joint_states/joint1/effort,/joint_states/joint1/position,/joint_states/joint1/velocity
1707741208.823915,,,1707741208.823353767,0.000000000,0.651174798,0.000000000,0.000000000,0.021427853,0.000000000
1707741208.825978,,,1707741208.825675726,0.000000000,0.651174798,0.000000000,0.000000000,0.021427853,0.000000000
1707741208.827819,,,1707741208.827491045,0.000000000,0.651174798,0.000000000,0.000000000,0.021427853,0.000000000
1707741208.829674,,,1707741208.829305649,0.000000000,0.651174798,0.000000000,0.000000000,0.021427853,0.000000000
1707741208.832054,,,1707741208.831355810,0.000000000,0.651174798,0.000000000,0.000000000,0.021427853,0.000000000
1707741208.833919,,,1707741208.833315849,0.000000000,0.651174798,0.000000000,0.000000000,0.021427853,0.000000000
1707741208.835981,,,1707741208.835423708,0.000000000,0.651174798,0.000000000,0.000000000,0.021427853,0.000000000
1707741208.837801,,,1707741208.837313652,0.000000000,0.651174798,0.000000000,0.000000000,0.021427853,0.000000000
1707741208.839594,,,1707741208.839362144,0.000000000,0.651174798,0.000000000,0.000000000,0.021427853,0.000000000
1707741208.842034,,,1707741208.841310740,0.000000000,0.651174798,0.000000000,0.000000000,0.021427853,0.000000000
1707741208.844068,,,1707741208.843446970,0.000000000,0.651174798,0.000000000,0.000000000,0.021427853,0.000000000
1707741208.845935,,,1707741208.845309973,0.000000000,0.651174798,0.000000000,0.000000000,0.021427853,0.000000000
1707741208.848012,,,1707741208.847353697,0.000000000,0.651174798,0.000000000,0.000000000,0.021427853,0.000000000
1707741208.849810,,,1707741208.849306107,0.000000000,0.651174798,0.000000000,0.000000000,0.021427853,0.000000000
1707741208.851647,,,1707741208.851332426,0.000000000,0.651174798,0.000000000,0.000000000,0.021427853,0.000000000
1707741208.853457,,,1707741208.853316307,0.000000000,0.651174798,0.000000000,0.000000000,0.021427853,0.000000000
1707741208.855906,,,1707741208.855356216,0.000000000,0.651174798,0.000000000,0.000000000,0.021427853,0.000000000
1707741208.857731,,,1707741208.857314110,0.000000000,0.651174798,0.000000000,0.000000000,0.021427853,0.000000000
1707741208.860116,,,1707741208.859450340,0.000000000,0.651174798,0.000000000,0.000000000,0.021427853,0.000000000
1707741208.861947,,,1707741208.861314058,0.000000000,0.651174798,0.000000000,0.000000000,0.021427853,0.000000000
1707741208.863890,,,1707741208.863360405,0.000000000,0.651174798,0.000000000,0.000000000,0.021427853,0.000000000
1707741208.865587,,,1707741208.865322113,0.000000000,0.651174798,0.000000000,0.000000000,0.021427853,0.000000000
1707741208.867887,,,1707741208.867330551,0.000000000,0.651174798,0.000000000,0.000000000,0.021427853,0.000000000
1707741208.869689,,,1707741208.869300365,0.000000000,0.651174798,0.000000000,0.000000000,0.021427853,0.000000000
1707741208.872031,,,1707741208.871351719,0.000000000,0.651174798,0.000000000,0.000000000,0.021427853,0.000000000
1707741208.873854,,,1707741208.873310089,0.000000000,0.651174798,0.000000000,0.000000000,0.021427853,0.000000000
1707741208.875676,,,1707741208.875295639,0.000000000,0.651174798,0.000000000,0.000000000,0.021427853,0.000000000
1707741208.877481,,,1707741208.877352953,0.000000000,0.651174798,0.000000000,0.000000000,0.021427853,0.000000000
1707741208.879866,,,1707741208.879353046,0.000000000,0.651174798,0.000000000,0.000000000,0.021427853,0.000000000
1707741208.881979,,,1707741208.881652355,0.000000000,0.651174798,0.000000000,0.000000000,0.021427853,0.000000000
1707741208.883794,,,1707741208.883320808,0.000000000,0.651174798,0.000000000,0.000000000,0.021427853,0.000000000
1707741208.885594,,,1707741208.885317087,0.000000000,0.651174798,0.000000000,0.000000000,0.021427853,0.000000000
1707741208.887980,,,1707741208.887306690,0.000000000,0.651174798,0.000000000,0.000000000,0.021427853,0.000000000
1707741208.889871,,,1707741208.889310122,0.000000000,0.651174798,0.000000000,0.000000000,0.021427853,0.000000000
1707741208.891696,,,1707741208.891301870,0.000000000,0.651174798,0.000000000,0.000000000,0.021427853,0.000000000
1707741208.893539,,,1707741208.893337011,0.000000000,0.651174798,0.000000000,0.000000000,0.021427853,0.000000000
1707741208.895915,,,1707741208.895313740,0.000000000,0.651174798,0.000000000,0.000000000,0.021427853,0.000000000
1707741208.897763,,,1707741208.897302389,0.000000000,0.651174798,0.000000000,0.000000000,0.021427853,0.000000000
1707741208.899587,,,1707741208.899336100,0.000000000,0.651174798,0.000000000,0.000000000,0.021427853,0.000000000
1707741208.901373,,,1707741208.901208162,0.000000000,0.651174798,0.000000000,0.000000000,0.021427853,0.000000000
1707741208.903885,,,1707741208.903325319,0.000000000,0.651174798,0.000000000,0.000000000,0.021427853,0.000000000
1707741208.905725,,,1707741208.905339956,0.000000000,0.651174798,0.000000000,0.000000000,0.021427853,0.000000000
1707741208.907579,,,1707741208.907307386,0.000000000,0.651174798,0.000000000,0.000000000,0.021427853,0.000000000
1707741208.909986,,,1707741208.909361362,0.000000000,0.651174798,0.000000000,0.000000000,0.021427853,0.000000000
1707741208.911824,,,1707741208.911357880,0.000000000,0.651174798,0.000000000,0.000000000,0.021427853,0.000000000
1707741208.913646,,,1707741208.913311243,0.000000000,0.651174798,0.000000000,0.000000000,0.021427853,0.000000000
1707741208.916023,,,1707741208.915345430,0.000000000,0.651174798,0.000000000,0.000000000,0.021427853,0.000000000
1707741208.917863,,,1707741208.917346478,0.000000000,0.651174798,0.000000000,0.000000000,0.021427853,0.000000000
1707741208.919713,,,1707741208.919345140,0.000000000,0.651174798,0.000000000,0.000000000,0.021427853,0.000000000
1707741208.921522,,,1707741208.921344280,0.000000000,0.651174798,0.000000000,0.000000000,0.021427853,0.000000000
1707741208.923896,,,1707741208.923322916,0.000000000,0.651174798,0.000000000,0.000000000,0.021427853,0.000000000
1707741208.926045,,,1707741208.925575733,0.000000000,0.651174798,0.000000000,0.000000000,0.021427853,0.000000000
1707741208.927910,,,1707741208.927358150,0.000000000,0.651174798,0.000000000,0.000000000,0.021427853,0.000000000
1707741208.929704,,,1707741208.929316759,0.000000000,0.651174798,0.000000000,0.000000000,0.021427853,0.000000000
1707741208.931531,,,1707741208.931347847,0.000000000,0.651174798,0.000000000,0.000000000,0.021427853,0.000000000
1707741208.933897,,,1707741208.933315277,0.000000000,0.651174798,0.000000000,0.000000000,0.021427853,0.000000000
1707741208.935740,,,1707741208.935311079,0.000000000,0.651174798,0.000000000,0.000000000,0.021427853,0.000000000
1707741208.937562,,,1707741208.937314272,0.000000000,0.651174798,0.000000000,0.000000000,0.021427853,0.000000000
1707741208.939950,,,1707741208.939326525,0.000000000,0.651174798,0.000000000,0.000000000,0.021427853,0.000000000
1707741208.942046,,,1707741208.941575766,0.000000000,0.651174798,0.000000000,0.000000000,0.021427853,0.000000000
1707741208.943867,,,1707741208.943293571,0.000000000,0.651174798,0.000000000,0.000000000,0.021427853,0.000000000
1707741208.945704,,,1707741208.945313454,0.000000000,0.651174798,0.000000000,0.000000000,0.021427853,0.000000000
1707741208.947464,,,1707741208.947316647,0.000000000,0.651174798,0.000000000,0.000000000,0.021427853,0.000000000
1707741208.949906,,,1707741208.949435711,0.000000000,0.651174798,0.000000000,0.000000000,0.021427853,0.000000000
1707741208.951767,,,1707741208.951304913,0.000000000,0.651174798,0.000000000,0.000000000,0.021427853,0.000000000
1707741208.953609,,,1707741208.953355074,0.000000000,0.651174798,0.000000000,0.000000000,0.021427853,0.000000000
1707741208.955884,,,1707741208.955340147,0.000000000,0.651174798,0.000000000,0.000000000,0.021427853,0.000000000
1707741208.957723,,,1707741208.957315445,0.000000000,0.651174798,0.000000000,0.000000000,0.021427853,0.000000000
1707741208.959553,,,1707741208.959366083,0.000000000,0.651174798,0.000000000,0.000000000,0.021427853,0.000000000
1707741208.961910,,,1707741208.961307526,0.000000000,0.651174798,0.000000000,0.000000000,0.021427853,0.000000000
1707741208.964017,,,1707741208.963576078,0.000000000,0.651174798,0.000000000,0.000000000,0.021427853,0.000000000
1707741208.965710,,,1707741208.965304852,0.000000000,0.651174798,0.000000000,0.000000000,0.021427853,0.000000000
1707741208.967509,,,1707741208.967348099,0.000000000,0.651174798,0.000000000,0.000000000,0.021427853,0.000000000
1707741208.969882,,,1707741208.969439507,0.000000000,0.651174798,0.000000000,0.000000000,0.021427853,0.000000000
1707741208.971708,,,1707741208.971307755,0.000000000,0.651174798,0.000000000,0.000000000,0.021427853,0.000000000
1707741208.973532,,,1707741208.973317385,0.000000000,0.651174798,0.000000000,0.000000000,0.021427853,0.000000000
1707741208.975872,,,1707741208.975303888,0.000000000,0.651174798,0.000000000,0.000000000,0.021427853,0.000000000
1707741208.977566,,,1707741208.977305889,0.000000000,0.651174798,0.000000000,0.000000000,0.021427853,0.000000000
1707741208.979798,,,1707741208.979494572,0.000000000,0.651174798,0.000000000,0.000000000,0.021427853,0.000000000
1707741208.981504,,,1707741208.981307030,0.000000000,0.651174798,0.000000000,0.000000000,0.021427853,0.000000000
1707741208.983716,,,1707741208.983345747,0.000000000,0.651174798,0.000000000,0.000000000,0.021427853,0.000000000
1707741208.986008,,,1707741208.985354900,0.000000000,0.651174798,0.000000000,0.000000000,0.021427853,0.000000000
1707741208.987932,,,1707741208.987736225,0.000000000,0.651174798,0.000000000,0.000000000,0.021427853,0.000000000
1707741208.989756,,,1707741208.989434958,0.000000000,0.651174798,0.000000000,0.000000000,0.021427853,0.000000000
1707741208.991662,,,1707741208.991392374,0.000000000,0.651174798,0.000000000,0.000000000,0.021427853,0.000000000
1707741208.993430,,,1707741208.993315697,0.000000000,0.651174798,0.000000000,0.000000000,0.021427853,0.000000000
1707741208.995913,,,1707741208.995364428,0.000000000,0.651174798,0.000000000,0.000000000,0.021427853,0.000000000
1707741208.997686,,,1707741208.997316122,0.000000000,0.651174798,0.000000000,0.000000000,0.021427853,0.000000000
1707741209.000130,,,1707741208.999394655,0.000000000,0.651174798,0.000000000,0.000000000,0.021427853,0.000000000
1707741209.001810,,,1707741209.001295090,0.000000000,0.651174798,0.000000000,0.000000000,0.021427853,0.000000000
1707741209.003466,,,1707741209.003307581,0.000000000,0.651174798,0.000000000,0.000000000,0.021427853,0.000000000
1707741209.005799,,,1707741209.005362034,0.000000000,0.651174798,0.000000000,0.000000000,0.021427853,0.000000000
1707741209.007475,,,1707741209.007350445,0.000000000,0.651174798,0.000000000,0.000000000,0.021427853,0.000000000
1707741209.009917,,,1707741209.009307861,0.000000000,0.651174798,0.000000000,0.000000000,0.021427853,0.000000000
1707741209.011947,,,1707741209.011678934,0.000000000,0.651174798,0.000000000,0.000000000,0.021427853,0.000000000
1707741209.013803,,,1707741209.013436794,0.000000000,0.651174798,0.000000000,0.000000000,0.021427853,0.000000000
1707741209.016592,,,1707741209.015893698,0.000000000,0.651174798,0.000000000,0.000000000,0.021427853,0.000000000
1707741209.017829,,,1707741209.017577648,0.000000000,0.651174798,0.000000000,0.000000000,0.021427853,0.000000000
1707741209.019645,,,1707741209.019364834,0.000000000,0.651174798,0.000000000,0.000000000,0.021427853,0.000000000
1707741209.021442,,,1707741209.021346092,0.000000000,0.651174798,0.000000000,0.000000000,0.021427853,0.000000000
1707741209.023812,,,1707741209.023373365,0.000000000,0.651174798,0.000000000,0.000000000,0.021427853,0.000000000
1707741209.025638,,,1707741209.025324106,0.000000000,0.651174798,0.000000000,0.000000000,0.021427853,0.000000000
1707741209.027890,,,1707741209.027349472,0.000000000,0.651174798,0.000000000,0.000000000,0.021427853,0.000000000
1707741209.029715,,,1707741209.029315472,0.000000000,0.651174798,0.000000000,0.000000000,0.021427853,0.000000000
1707741209.031547,,,1707741209.031309128,0.000000000,0.651174798,0.000000000,0.000000000,0.021427853,0.000000000
1707741209.033396,,,1707741209.033317089,0.000000000,0.651174798,0.000000000,0.000000000,0.021427853,0.000000000
1707741209.035724,,,1707741209.035313368,0.000000000,0.651174798,0.000000000,0.000000000,0.021427853,0.000000000
1707741209.037549,,,1707741209.037318945,0.000000000,0.651174798,0.000000000,0.000000000,0.021427853,0.000000000
1707741209.039930,,,1707741209.039384842,0.000000000,0.651174798,0.000000000,0.000000000,0.021427853,0.000000000
1707741209.041735,,,1707741209.041313887,0.000000000,0.651174798,0.000000000,0.000000000,0.021427853,0.000000000
1707741209.043561,,,1707741209.043326139,0.000000000,0.651174798,0.000000000,0.000000000,0.021427853,0.000000000
1707741209.045388,,,1707741209.045326471,0.000000000,0.651174798,0.000000000,0.000000000,0.021427853,0.000000000
1707741209.048539,,,1707741209.048021793,0.000000000,0.651174798,0.000000000,0.000000000,0.021427853,0.000000000
1707741209.050405,,,1707741209.049715519,0.000000000,0.651174798,0.000000000,0.000000000,0.021427853,0.000000000
1707741209.052371,,,1707741209.052059174,0.000000000,0.651174798,0.000000000,0.000000000,0.021427853,0.000000000
1707741209.054090,,,1707741209.053715944,0.000000000,0.651174798,0.000000000,0.000000000,0.021427853,0.000000000
1707741209.055806,,,1707741209.055485725,0.000000000,0.651174798,0.000000000,0.000000000,0.021427853,0.000000000
1707741209.058268,,,1707741209.057770014,0.000000000,0.651174798,0.000000000,0.000000000,0.021427853,0.000000000
1707741209.059962,,,1707741209.059618473,0.000000000,0.651673641,0.035952678,0.000000000,0.020191230,-0.113850148
1707741209.061898,,,1707741209.061308146,0.000000000,0.654427766,0.311589871,0.000000000,0.018225818,-0.323574096
1707741209.063639,,,1707741209.063365221,0.000000000,0.657939144,0.641156079,0.000000000,0.015661942,-0.509329605
1707741209.066000,,,1707741209.065357924,0.000000000,0.663499824,1.084572448,0.000000000,0.010201630,-0.976714423
1707741209.068274,,,1707741209.067811251,0.000000000,0.673108925,1.779657586,0.000000000,0.002832081,-1.527988769
1707741209.070104,,,1707741209.069576740,0.000000000,0.681464177,2.390853056,0.000000000,-0.004050610,-2.001365746
1707741209.072337,,,1707741209.071368694,0.000000000,0.691653764,3.014032751,0.000000000,-0.013112931,-2.564624317
1707741209.074095,,,1707741209.073467493,0.000000000,0.704229710,3.691141645,0.000000000,-0.023132492,-3.079945988
1707741209.075874,,,1707741209.075311899,0.000000000,0.716282845,4.248408103,0.000000000,-0.032940082,-3.499394047
1707741209.077677,,,1707741209.077328205,0.000000000,0.730359815,4.859603574,0.000000000,-0.044923558,-4.050668393
1707741209.080226,,,1707741209.079675436,0.000000000,0.746287599,5.464806931,0.000000000,-0.057934681,-4.452139927
1707741209.081959,,,1707741209.081583500,0.000000000,0.763611545,6.076002402,0.000000000,-0.071582466,-4.985437935
1707741209.083746,,,1707741209.083359957,0.000000000,0.778616543,6.567355997,0.000000000,-0.082974970,-5.303019895
1707741209.085982,,,1707741209.085393190,0.000000000,0.795793729,7.016764431,0.000000000,-0.096046014,-5.542704393
1707741209.087772,,,1707741209.087376118,0.000000000,0.814008253,7.472164978,0.000000000,-0.111800776,-6.058026064
1707741209.090078,,,1707741209.089449167,0.000000000,0.832620504,7.879628624,0.000000000,-0.127154066,-6.351639949
1707741209.091912,,,1707741209.091369152,0.000000000,0.851261965,8.197210584,0.000000000,-0.141405556,-6.585332335
1707741209.093638,,,1707741209.093321800,0.000000000,0.870513874,8.508800432,0.000000000,-0.156940857,-6.860969507
1707741209.095468,,,1707741209.095323563,0.000000000,0.889756794,8.754477042,0.000000000,-0.171141414,-7.010772319
1707741209.097856,,,1707741209.097502708,0.000000000,0.909151015,8.964200978,0.000000000,-0.188384467,-7.142598793
1707741209.099572,,,1707741209.099338770,0.000000000,0.928588679,9.131980127,0.000000000,-0.203495088,-7.358314841
1707741209.101930,,,1707741209.101618290,0.000000000,0.950592465,9.281782938,0.000000000,-0.220517182,-7.406251741
1707741209.103723,,,1707741209.103387117,0.000000000,0.968037751,9.419601525,0.000000000,-0.234660065,-7.532086102
1707741209.105490,,,1707741209.105371714,0.000000000,0.988162261,9.563412223,0.000000000,-0.250115970,-7.603991451
1707741209.107934,,,1707741209.107498646,0.000000000,1.008378150,9.677262360,0.000000000,-0.266523123,-7.609983564
1707741209.109771,,,1707741209.109331131,0.000000000,1.028886904,9.803096722,0.000000000,-0.281947569,-7.741810038
1707741209.112302,,,1707741209.111797094,0.000000000,1.050519179,9.892978408,0.000000000,-0.300360582,-7.765778488
1707741209.114139,,,1707741209.113770485,0.000000000,1.072060074,9.952899533,0.000000000,-0.316431428,-7.807723275
1707741209.115862,,,1707741209.115596771,0.000000000,1.091539683,10.036789107,0.000000000,-0.331786216,-7.885620737
1707741209.117727,,,1707741209.117428780,0.000000000,1.110971354,10.102702344,0.000000000,-0.346065420,-7.933557636
1707741209.119547,,,1707741209.119434595,0.000000000,1.131828400,10.168615581,0.000000000,-0.363056804,-8.059391998
1707741209.121931,,,1707741209.121315479,0.000000000,1.153220241,10.288457830,0.000000000,-0.380769488,-8.227171147
1707741209.123757,,,1707741209.123330832,0.000000000,1.174612083,10.378339517,0.000000000,-0.397193119,-8.227171147
1707741209.125619,,,1707741209.125314713,0.000000000,1.196036132,10.456236979,0.000000000,-0.414575488,-8.329037058
1707741209.127948,,,1707741209.127330065,0.000000000,1.217168814,10.480205429,0.000000000,-0.431555637,-8.376973958
1707741209.129774,,,1707741209.129478216,0.000000000,1.238341944,10.504173879,0.000000000,-0.449169452,-8.353005508
1707741209.131572,,,1707741209.131442070,0.000000000,1.259266400,10.504173879,0.000000000,-0.465105475,-8.382966070
1707741209.133955,,,1707741209.133348465,0.000000000,1.279737704,10.444252754,0.000000000,-0.481511130,-8.347013396
1707741209.135696,,,1707741209.135398865,0.000000000,1.300015012,10.378339517,0.000000000,-0.498230621,-8.347013396
1707741209.137518,,,1707741209.137353897,0.000000000,1.320442872,10.342386842,0.000000000,-0.514937380,-8.353005508
1707741209.139901,,,1707741209.139313698,0.000000000,1.340322455,10.264489380,0.000000000,-0.531449395,-8.323044946
1707741209.141565,,,1707741209.141341209,0.000000000,1.360691892,10.234528818,0.000000000,-0.548326180,-8.353005508
1707741209.143833,,,1707741209.143322945,0.000000000,1.381060580,10.222544593,0.000000000,-0.564923582,-8.341021283
1707741209.145490,,,1707741209.145313740,0.000000000,1.401409794,10.216552481,0.000000000,-0.581338974,-8.317052833
1707741209.147733,,,1707741209.147358894,0.000000000,1.421717812,10.198576143,0.000000000,-0.597695194,-8.293084384
1707741209.149464,,,1707741209.149328709,0.000000000,1.441780154,10.162623469,0.000000000,-0.613991493,-8.257131709
1707741209.151848,,,1707741209.151366949,0.000000000,1.461783323,10.132662906,0.000000000,-0.630385913,-8.239155371
1707741209.153691,,,1707741209.153310776,0.000000000,1.481648674,10.090718119,0.000000000,-0.646492711,-8.203202697
1707741209.155553,,,1707741209.155350685,0.000000000,1.501546981,10.060757557,0.000000000,-0.662571796,-8.161257910
1707741209.157991,,,1707741209.157331944,0.000000000,1.521484986,10.036789107,0.000000000,-0.678355769,-8.107328897
1707741209.160278,,,1707741209.159595251,0.000000000,1.545486393,10.048773332,0.000000000,-0.696512618,-8.089352560
1707741209.161495,,,1707741209.161376953,0.000000000,1.562032113,10.066749670,0.000000000,-0.711041244,-8.125305235
1707741209.163925,,,1707741209.163698673,0.000000000,1.582710144,10.126670794,0.000000000,-0.728744191,-8.173242134
1707741209.165652,,,1707741209.165343761,0.000000000,1.603580672,10.198576143,0.000000000,-0.744052541,-8.179234247
1707741209.168565,,,1707741209.168435097,0.000000000,1.628087663,10.234528818,0.000000000,-0.768339321,-8.155265797
