__time,/effort_control/data.0,/effort_control/layout/data_offset,/joint_states/header/stamp,/joint_states/joint0/effort,/joint_states/joint0/position,/joint_states/joint0/velocity,/joint_states/joint1/effort,/joint_states/joint1/position,/joint_states/joint1/velocity
1707741442.533458,,,1707741442.532917976,0.000000000,173.284593738,0.000000000,0.000000000,0.059011072,0.000000000
1707741442.536234,,,1707741442.535350084,0.000000000,173.284593738,0.000000000,0.000000000,0.059011072,0.000000000
1707741442.538235,,,1707741442.538098335,0.000000000,173.284593738,0.000000000,0.000000000,0.059011072,0.000000000
1707741442.540659,,,1707741442.540334702,0.000000000,173.284593738,0.000000000,0.000000000,0.059011072,0.000000000
1707741442.543314,,,1707741442.543055058,0.000000000,173.284593738,0.000000000,0.000000000,0.059011072,0.000000000
1707741442.545161,,,1707741442.544677496,0.000000000,173.284593738,0.000000000,0.000000000,0.059011072,0.000000000
1707741442.546983,,,1707741442.546310902,0.000000000,173.284593738,0.000000000,0.000000000,0.059011072,0.000000000
1707741442.549032,,,1707741442.548512220,0.000000000,173.284593738,0.000000000,0.000000000,0.059011072,0.000000000
1707741442.550856,,,1707741442.550222397,0.000000000,173.284593738,0.000000000,0.000000000,0.059011072,0.000000000
1707741442.552624,,,1707741442.552059412,0.000000000,173.284593738,0.000000000,0.000000000,0.059011072,0.000000000
1707741442.554449,,,1707741442.553760290,0.000000000,173.284593738,0.000000000,0.000000000,0.059011072,0.000000000
1707741442.555685,,,1707741442.555291414,0.000000000,173.284593738,0.000000000,0.000000000,0.059011072,0.000000000
1707741442.557502,,,1707741442.557060957,0.000000000,173.284593738,0.000000000,0.000000000,0.059011072,0.000000000
1707741442.559268,,,1707741442.558791161,0.000000000,173.284593738,0.000000000,0.000000000,0.059011072,0.000000000
1707741442.561104,,,1707741442.560667753,0.000000000,173.284593738,0.000000000,0.000000000,0.059011072,0.000000000
1707741442.563500,,,1707741442.562811136,0.000000000,173.284593738,0.000000000,0.000000000,0.059011072,0.000000000
1707741442.565277,,,1707741442.564760447,0.000000000,173.284593738,0.000000000,0.000000000,0.059011072,0.000000000
1707741442.567097,,,1707741442.566684723,0.000000000,173.284593738,0.000000000,0.000000000,0.059011072,0.000000000
1707741442.568942,,,1707741442.568683147,0.000000000,173.284593738,0.000000000,0.000000000,0.059011072,0.000000000
1707741442.571324,,,1707741442.570768118,0.000000000,173.284593738,0.000000000,0.000000000,0.059011072,0.000000000
1707741442.573153,,,1707741442.572759867,0.000000000,173.284593738,0.000000000,0.000000000,0.059011072,0.000000000
1707741442.574978,,,1707741442.574811220,0.000000000,173.284593738,0.000000000,0.000000000,0.059011072,0.000000000
1707741442.577413,,,1707741442.576683283,0.000000000,173.284593738,0.000000000,0.000000000,0.059011072,0.000000000
1707741442.579198,,,1707741442.578685045,0.000000000,173.284593738,0.000000000,0.000000000,0.059011072,0.000000000
1707741442.581082,,,1707741442.580760479,0.000000000,173.284593738,0.000000000,0.000000000,0.059011072,0.000000000
1707741442.582842,,,1707741442.582678795,0.000000000,173.284593738,0.000000000,0.000000000,0.059011072,0.000000000
1707741442.585032,,,1707741442.584810972,0.000000000,173.284593738,0.000000000,0.000000000,0.059011072,0.000000000
1707741442.586862,,,1707741442.586683273,0.000000000,173.284593738,0.000000000,0.000000000,0.059011072,0.000000000
1707741442.589309,,,1707741442.588786364,0.000000000,173.284593738,0.000000000,0.000000000,0.059011072,0.000000000
1707741442.591136,,,1707741442.590683460,0.000000000,173.284593738,0.000000000,0.000000000,0.059011072,0.000000000
1707741442.592965,,,1707741442.592643023,0.000000000,173.284593738,0.000000000,0.000000000,0.059011072,0.000000000
1707741442.595031,,,1707741442.594811201,0.000000000,173.284593738,0.000000000,0.000000000,0.059011072,0.000000000
1707741442.596906,,,1707741442.596683264,0.000000000,173.284593738,0.000000000,0.000000000,0.059011072,0.000000000
1707741442.599296,,,1707741442.598682165,0.000000000,173.284593738,0.000000000,0.000000000,0.059011072,0.000000000
1707741442.601150,,,1707741442.600786686,0.000000000,173.284593738,0.000000000,0.000000000,0.059011072,0.000000000
1707741442.602947,,,1707741442.602672577,0.000000000,173.284593738,0.000000000,0.000000000,0.059011072,0.000000000
1707741442.605391,,,1707741442.604810476,0.000000000,173.284593738,0.000000000,0.000000000,0.059011072,0.000000000
1707741442.607220,,,1707741442.606760979,0.000000000,173.284593738,0.000000000,0.000000000,0.059011072,0.000000000
1707741442.609083,,,1707741442.608682394,0.000000000,173.284593738,0.000000000,0.000000000,0.059011072,0.000000000
1707741442.610902,,,1707741442.610676289,0.000000000,173.284593738,0.000000000,0.000000000,0.059011072,0.000000000
1707741442.613338,,,1707741442.612784386,0.000000000,173.284593738,0.000000000,0.000000000,0.059011072,0.000000000
1707741442.615226,,,1707741442.614785433,0.000000000,173.284593738,0.000000000,0.000000000,0.059011072,0.000000000
1707741442.617057,,,1707741442.616681337,0.000000000,173.284593738,0.000000000,0.000000000,0.059011072,0.000000000
1707741442.619409,,,1707741442.618790388,0.000000000,173.284593738,0.000000000,0.000000000,0.059011072,0.000000000
1707741442.621314,,,1707741442.620785475,0.000000000,173.284593738,0.000000000,0.000000000,0.059011072,0.000000000
1707741442.623161,,,1707741442.622682333,0.000000000,173.284593738,0.000000000,0.000000000,0.059011072,0.000000000
1707741442.624985,,,1707741442.624785662,0.000000000,173.284593738,0.000000000,0.000000000,0.059011072,0.000000000
1707741442.627376,,,1707741442.626810312,0.000000000,173.284593738,0.000000000,0.000000000,0.059011072,0.000000000
1707741442.629213,,,1707741442.628682375,0.000000000,173.284593738,0.000000000,0.000000000,0.059011072,0.000000000
1707741442.630994,,,1707741442.630794048,0.000000000,173.284593738,0.000000000,0.000000000,0.059011072,0.000000000
1707741442.632869,,,1707741442.632718801,0.000000000,173.284593738,0.000000000,0.000000000,0.059011072,0.000000000
1707741442.635285,,,1707741442.634955645,0.000000000,173.284593738,0.000000000,0.000000000,0.059011072,0.000000000
1707741442.637138,,,1707741442.636761665,0.000000000,173.284593738,0.000000000,0.000000000,0.059011072,0.000000000
1707741442.638956,,,1707741442.638812065,0.000000000,173.284593738,0.000000000,0.000000000,0.059011072,0.000000000
1707741442.641394,,,1707741442.640800476,0.000000000,173.284593738,0.000000000,0.000000000,0.059011072,0.000000000
1707741442.643437,,,1707741442.642812490,0.000000000,173.284593738,0.000000000,0.000000000,0.059011072,0.000000000
1707741442.645272,,,1707741442.644811392,0.000000000,173.284593738,0.000000000,0.000000000,0.059011072,0.000000000
1707741442.647048,,,1707741442.646684408,0.000000000,173.284593738,0.000000000,0.000000000,0.059011072,0.000000000
1707741442.648920,,,1707741442.648685932,0.000000000,173.284593738,0.000000000,0.000000000,0.059011072,0.000000000
1707741442.651303,,,1707741442.650811434,0.000000000,173.284593738,0.000000000,0.000000000,0.059011072,0.000000000
1707741442.653157,,,1707741442.652683973,0.000000000,173.284593738,0.000000000,0.000000000,0.059011072,0.000000000
1707741442.654983,,,1707741442.654811621,0.000000000,173.284593738,0.000000000,0.000000000,0.059011072,0.000000000
1707741442.657420,,,1707741442.656811953,0.000000000,173.284593738,0.000000000,0.000000000,0.059011072,0.000000000
1707741442.659279,,,1707741442.658811569,0.000000000,173.284593738,0.000000000,0.000000000,0.059011072,0.000000000
1707741442.661125,,,1707741442.660679102,0.000000000,173.284593738,0.000000000,0.000000000,0.059011072,0.000000000
1707741442.663548,,,1707741442.662850142,0.000000000,173.284593738,0.000000000,0.000000000,0.059011072,0.000000000
1707741442.665391,,,1707741442.664786577,0.000000000,173.284593738,0.000000000,0.000000000,0.059011072,0.000000000
1707741442.667170,,,1707741442.666714907,0.000000000,173.284593738,0.000000000,0.000000000,0.059011072,0.000000000
1707741442.668975,,,1707741442.668812037,0.000000000,173.284593738,0.000000000,0.000000000,0.059011072,0.000000000
1707741442.671390,,,1707741442.670725822,0.000000000,173.284593738,0.000000000,0.000000000,0.059011072,0.000000000
1707741442.673220,,,1707741442.672851801,0.000000000,173.284593738,0.000000000,0.000000000,0.059011072,0.000000000
1707741442.675012,,,1707741442.674813747,0.000000000,173.284593738,0.000000000,0.000000000,0.059011072,0.000000000
1707741442.677483,,,1707741442.676786900,0.000000000,173.284593738,0.000000000,0.000000000,0.059011072,0.000000000
1707741442.679334,,,1707741442.678811789,0.000000000,173.284593738,0.000000000,0.000000000,0.059011072,0.000000000
1707741442.681157,,,1707741442.680720091,0.000000000,173.284593738,0.000000000,0.000000000,0.059011072,0.000000000
1707741442.682982,,,1707741442.682811737,0.000000000,173.284593738,0.000000000,0.000000000,0.059011072,0.000000000
1707741442.685435,,,1707741442.684811831,0.000000000,173.284593738,0.000000000,0.000000000,0.059011072,0.000000000
1707741442.687302,,,1707741442.686811686,0.000000000,173.284593738,0.000000000,0.000000000,0.059011072,0.000000000
1707741442.689096,,,1707741442.688677549,0.000000000,173.284593738,0.000000000,0.000000000,0.059011072,0.000000000
1707741442.690914,,,1707741442.690760851,0.000000000,173.284593738,0.000000000,0.000000000,0.059011072,0.000000000
1707741442.693377,,,1707741442.692953110,0.000000000,173.284593738,0.000000000,0.000000000,0.059011072,0.000000000
1707741442.695202,,,1707741442.694812059,0.000000000,173.284593738,0.000000000,0.000000000,0.059011072,0.000000000
1707741442.696997,,,1707741442.696815252,0.000000000,173.284593738,0.000000000,0.000000000,0.059011072,0.000000000
1707741442.699372,,,1707741442.698863506,0.000000000,173.284593738,0.000000000,0.000000000,0.059011072,0.000000000
1707741442.701233,,,1707741442.700672388,0.000000000,173.284593738,0.000000000,0.000000000,0.059011072,0.000000000
1707741442.703035,,,1707741442.702816010,0.000000000,173.284593738,0.000000000,0.000000000,0.059011072,0.000000000
1707741442.705536,,,1707741442.704924345,0.000000000,173.284593738,0.000000000,0.000000000,0.059011072,0.000000000
1707741442.707315,,,1707741442.706811905,0.000000000,173.284593738,0.000000000,0.000000000,0.059011072,0.000000000
1707741442.709214,,,1707741442.708883524,0.000000000,173.284593738,0.000000000,0.000000000,0.059011072,0.000000000
1707741442.711001,,,1707741442.710787058,0.000000000,173.284593738,0.000000000,0.000000000,0.059011072,0.000000000
1707741442.713527,,,1707741442.712812185,0.000000000,173.284593738,0.000000000,0.000000000,0.059011072,0.000000000
1707741442.715291,,,1707741442.714812279,0.000000000,173.284593738,0.000000000,0.000000000,0.059011072,0.000000000
1707741442.717097,,,1707741442.716811657,0.000000000,173.284593738,0.000000000,0.000000000,0.059011072,0.000000000
1707741442.718916,,,1707741442.718786955,0.000000000,173.284593738,0.000000000,0.000000000,0.059011072,0.000000000
1707741442.721416,,,1707741442.720796585,0.000000000,173.284593738,0.000000000,0.000000000,0.059011072,0.000000000
1707741442.723368,,,1707741442.722786665,0.000000000,173.284593738,0.000000000,0.000000000,0.059011072,0.000000000
1707741442.725209,,,1707741442.724862099,0.000000000,173.284593738,0.000000000,0.000000000,0.059011072,0.000000000
1707741442.726992,,,1707741442.726761103,0.000000000,173.284593738,0.000000000,0.000000000,0.059011072,0.000000000
1707741442.729498,,,1707741442.728811741,0.000000000,173.284593738,0.000000000,0.000000000,0.059011072,0.000000000
1707741442.731289,,,1707741442.730812073,0.000000000,173.284593738,0.000000000,0.000000000,0.059011072,0.000000000
1707741442.733141,,,1707741442.732760429,0.000000000,173.284593738,0.000000000,0.000000000,0.059011072,0.000000000
1707741442.734957,,,1707741442.734811783,0.000000000,173.284593738,0.000000000,0.000000000,0.059011072,0.000000000
1707741442.737413,,,1707741442.736786842,0.000000000,173.284593738,0.000000000,0.000000000,0.059011072,0.000000000
1707741442.739247,,,1707741442.738798618,0.000000000,173.284593738,0.000000000,0.000000000,0.059011072,0.000000000
1707741442.741076,,,1707741442.740684748,0.000000000,173.284593738,0.000000000,0.000000000,0.059011072,0.000000000
1707741442.743472,,,1707741442.742811918,0.000000000,173.284593738,0.000000000,0.000000000,0.059011072,0.000000000
1707741442.745132,,,1707741442.744848490,0.000000000,173.284593738,0.000000000,0.000000000,0.059011072,0.000000000
1707741442.747450,,,1707741442.746761322,0.000000000,173.284593738,0.000000000,0.000000000,0.059011072,0.000000000
1707741442.749236,,,1707741442.748686075,0.000000000,173.284593738,0.000000000,0.000000000,0.059011072,0.000000000
1707741442.751022,,,1707741442.750684023,0.000000000,173.284593738,0.000000000,0.000000000,0.059011072,0.000000000
1707741442.752822,,,1707741442.752761602,0.000000000,173.284593738,0.000000000,0.000000000,0.059011072,0.000000000
1707741442.755297,,,1707741442.754786015,0.000000000,173.284593738,0.000000000,0.000000000,0.059011072,0.000000000
1707741442.757110,,,1707741442.756813526,0.000000000,173.284593738,0.000000000,0.000000000,0.059011072,0.000000000
1707741442.759526,,,1707741442.758859158,0.000000000,173.284593738,0.000000000,0.000000000,0.059011072,0.000000000
1707741442.761396,,,1707741442.760799885,0.000000000,173.284593738,0.000000000,0.000000000,0.059011072,0.000000000
1707741442.763214,,,1707741442.762884140,0.000000000,173.284593738,0.000000000,0.000000000,0.059011072,0.000000000
1707741442.765018,,,1707741442.764872074,0.000000000,173.284593738,0.000000000,0.000000000,0.059011072,0.000000000
1707741442.767402,,,1707741442.766813278,0.000000000,173.284593738,0.000000000,0.000000000,0.059011072,0.000000000
1707741442.769171,,,1707741442.768762589,0.000000000,173.284593738,0.000000000,0.000000000,0.059011072,0.000000000
1707741442.771394,,,1707741442.770825863,0.000000000,173.284593738,0.000000000,0.000000000,0.059011072,0.000000000
1707741442.773641,,,1707741442.773139000,0.000000000,173.284593738,0.000000000,0.000000000,0.059011072,0.000000000
1707741442.775351,,,1707741442.774813652,0.000000000,173.284593738,0.000000000,0.000000000,0.059011072,0.000000000
1707741442.777047,,,1707741442.776813030,0.000000000,173.284593738,0.000000000,0.000000000,0.059011072,0.000000000
1707741442.779373,,,1707741442.778906345,0.000000000,173.284593738,0.000000000,0.000000000,0.059011072,0.000000000
1707741442.781084,,,1707741442.780762196,0.000000000,173.284593738,0.000000000,0.000000000,0.059011072,0.000000000
1707741442.783366,,,1707741442.782715321,0.000000000,173.284593738,0.000000000,0.000000000,0.059011072,0.000000000
1707741442.785200,,,1707741442.784811974,0.000000000,173.284593738,0.000000000,0.000000000,0.059011072,0.000000000
1707741442.787003,,,1707741442.786788464,0.000000000,173.284593738,0.000000000,0.000000000,0.059011072,0.000000000
1707741442.788858,,,1707741442.788683176,0.000000000,173.284593738,0.000000000,0.000000000,0.059011072,0.000000000
1707741442.791263,,,1707741442.790815353,0.000000000,173.284593738,0.000000000,0.000000000,0.059011072,0.000000000
1707741442.793098,,,1707741442.792761803,0.000000000,173.284593738,0.000000000,0.000000000,0.059011072,0.000000000
1707741442.795479,,,1707741442.794896126,0.000000000,173.284593738,0.000000000,0.000000000,0.059011072,0.000000000
1707741442.797238,,,1707741442.797063351,0.000000000,173.284593738,0.000000000,0.000000000,0.059011072,0.000000000
1707741442.799044,,,1707741442.798812866,0.000000000,173.284593738,0.000000000,0.000000000,0.059011072,0.000000000
1707741442.800926,,,1707741442.800713062,0.000000000,173.284593738,0.000000000,0.000000000,0.059011072,0.000000000
1707741442.803340,,,1707741442.802952766,0.000000000,173.284593738,0.000000000,0.000000000,0.059011072,0.000000000
1707741442.805108,,,1707741442.804787636,0.000000000,173.284593738,0.000000000,0.000000000,0.059011072,0.000000000
1707741442.807616,,,1707741442.806909800,0.000000000,173.284593738,0.000000000,0.000000000,0.059011072,0.000000000
1707741442.809362,,,1707741442.808812141,0.000000000,173.284593738,0.000000000,0.000000000,0.059011072,0.000000000
1707741442.811777,,,1707741442.811225891,0.000000000,173.284593738,0.000000000,0.000000000,0.059011072,0.000000000
1707741442.813014,,,1707741442.812927246,0.000000000,173.284593738,0.000000000,0.000000000,0.059011072,0.000000000
1707741442.815530,,,1707741442.815027475,0.000000000,173.284593738,0.000000000,0.000000000,0.059011072,0.000000000
1707741442.817249,,,1707741442.816927195,0.000000000,173.284593738,0.000000000,0.000000000,0.059011072,0.000000000
1707741442.819085,,,1707741442.819020987,0.000000000,173.284593738,0.000000000,0.000000000,0.059011072,0.000000000
1707741442.821594,,,1707741442.821025848,0.000000000,173.284593738,0.000000000,0.000000000,0.059011072,0.000000000
1707741442.823380,,,1707741442.822797298,0.000000000,173.284593738,0.000000000,0.000000000,0.059011072,0.000000000
1707741442.825159,,,1707741442.824821234,0.000000000,173.284593738,0.000000000,0.000000000,0.059011072,0.000000000
1707741442.826985,,,1707741442.826677322,0.000000000,173.284593738,0.000000000,0.000000000,0.059011072,0.000000000
1707741442.828814,,,1707741442.828717709,0.000000000,173.284593738,0.000000000,0.000000000,0.059011072,0.000000000
1707741442.831217,,,1707741442.830812454,0.000000000,173.284593738,0.000000000,0.000000000,0.059011072,0.000000000
1707741442.833002,,,1707741442.832812309,0.000000000,173.284593738,0.000000000,0.000000000,0.059011072,0.000000000
1707741442.834830,,,1707741442.834722519,0.000000000,173.284593738,0.000000000,0.000000000,0.059011072,0.000000000
1707741442.837251,,,1707741442.836848497,0.000000000,173.284593738,0.000000000,0.000000000,0.059011072,0.000000000
1707741442.839161,,,1707741442.838812351,0.000000000,173.284593738,0.000000000,0.000000000,0.059011072,0.000000000
1707741442.840948,,,1707741442.840813160,0.000000000,173.284593738,0.000000000,0.000000000,0.059011072,0.000000000
1707741442.843334,,,1707741442.842812300,0.000000000,173.284593738,0.000000000,0.000000000,0.059011072,0.000000000
1707741442.845169,,,1707741442.844904423,0.000000000,173.284593738,0.000000000,0.000000000,0.059011072,0.000000000
1707741442.846997,,,1707741442.846812487,0.000000000,173.284593738,0.000000000,0.000000000,0.059011072,0.000000000
1707741442.848781,,,1707741442.848684788,0.000000000,173.284593738,0.000000000,0.000000000,0.059011072,0.000000000
1707741442.851290,,,1707741442.850812435,0.000000000,173.284593738,0.000000000,0.000000000,0.059011072,0.000000000
1707741442.853139,,,1707741442.852761745,0.000000000,173.284593738,0.000000000,0.000000000,0.059011072,0.000000000
1707741442.854964,,,1707741442.854812622,0.000000000,173.284593738,0.000000000,0.000000000,0.059011072,0.000000000
1707741442.857375,,,1707741442.856937885,0.000000000,173.284593738,0.000000000,0.000000000,0.059011072,0.000000000
1707741442.859203,,,1707741442.858761787,0.000000000,173.284593738,0.000000000,0.000000000,0.059011072,0.000000000
1707741442.861113,,,1707741442.860672474,0.000000000,173.284593738,0.000000000,0.000000000,0.059011072,0.000000000
1707741442.863452,,,1707741442.862839460,0.000000000,173.284593738,0.000000000,0.000000000,0.059011072,0.000000000
1707741442.865237,,,1707741442.864850044,0.000000000,173.284593738,0.000000000,0.000000000,0.059011072,0.000000000
1707741442.866999,,,1707741442.866572618,0.000000000,173.284593738,0.000000000,0.000000000,0.059011072,0.000000000
1707741442.869424,,,1707741442.868811369,0.000000000,173.284593738,0.000000000,0.000000000,0.059011072,0.000000000
1707741442.871092,,,1707741442.870810509,0.000000000,173.284593738,0.000000000,0.000000000,0.059011072,0.000000000
1707741442.873028,,,1707741442.872682810,0.000000000,173.284593738,0.000000000,0.000000000,0.059011072,0.000000000
