__time,/effort_control/data.0,/effort_control/layout/data_offset,/joint_states/header/stamp,/joint_states/joint0/effort,/joint_states/joint0/position,/joint_states/joint0/velocity,/joint_states/joint1/effort,/joint_states/joint1/position,/joint_states/joint1/velocity
1707741386.557774,,,1707741386.557132244,0.000000000,104.441848934,0.000000000,0.000000000,0.069748751,0.000000000
1707741386.559474,,,1707741386.559162140,0.000000000,104.441848934,0.000000000,0.000000000,0.069748751,0.000000000
1707741386.561681,,,1707741386.561243534,0.000000000,104.441848934,0.000000000,0.000000000,0.069748751,0.000000000
1707741386.563368,,,1707741386.563244104,0.000000000,104.441848934,0.000000000,0.000000000,0.069748751,0.000000000
1707741386.565660,,,1707741386.565179586,0.000000000,104.441848934,0.000000000,0.000000000,0.069748751,0.000000000
1707741386.567318,,,1707741386.567120314,0.000000000,104.441848934,0.000000000,0.000000000,0.069748751,0.000000000
1707741386.569591,,,1707741386.569278955,0.000000000,104.441848934,0.000000000,0.000000000,0.069748751,0.000000000
1707741386.571838,,,1707741386.571250439,0.000000000,104.441848934,0.000000000,0.000000000,0.069748751,0.000000000
1707741386.573462,,,1707741386.573278666,0.000000000,104.441848934,0.000000000,0.000000000,0.069748751,0.000000000
1707741386.575688,,,1707741386.575246334,0.000000000,104.441848934,0.000000000,0.000000000,0.069748751,0.000000000
1707741386.577399,,,1707741386.577132463,0.000000000,104.441848934,0.000000000,0.000000000,0.069748751,0.000000000
1707741386.579685,,,1707741386.579260349,0.000000000,104.441848934,0.000000000,0.000000000,0.069748751,0.000000000
1707741386.581386,,,1707741386.581130028,0.000000000,104.441848934,0.000000000,0.000000000,0.069748751,0.000000000
1707741386.583698,,,1707741386.583380222,0.000000000,104.441848934,0.000000000,0.000000000,0.069748751,0.000000000
1707741386.585343,,,1707741386.585137606,0.000000000,104.441848934,0.000000000,0.000000000,0.069748751,0.000000000
1707741386.587592,,,1707741386.587117910,0.000000000,104.441848934,0.000000000,0.000000000,0.069748751,0.000000000
1707741386.589861,,,1707741386.589242935,0.000000000,104.441848934,0.000000000,0.000000000,0.069748751,0.000000000
1707741386.591555,,,1707741386.591133595,0.000000000,104.441848934,0.000000000,0.000000000,0.069748751,0.000000000
1707741386.593784,,,1707741386.593125582,0.000000000,104.441848934,0.000000000,0.000000000,0.069748751,0.000000000
1707741386.595496,,,1707741386.595133543,0.000000000,104.441848934,0.000000000,0.000000000,0.069748751,0.000000000
1707741386.597772,,,1707741386.597261906,0.000000000,104.441848934,0.000000000,0.000000000,0.069748751,0.000000000
1707741386.599458,,,1707741386.599133253,0.000000000,104.441848934,0.000000000,0.000000000,0.069748751,0.000000000
1707741386.601703,,,1707741386.601130247,0.000000000,104.441848934,0.000000000,0.000000000,0.069748751,0.000000000
1707741386.603399,,,1707741386.603124380,0.000000000,104.441848934,0.000000000,0.000000000,0.069748751,0.000000000
1707741386.605663,,,1707741386.605253220,0.000000000,104.441848934,0.000000000,0.000000000,0.069748751,0.000000000
1707741386.607347,,,1707741386.607137442,0.000000000,104.441848934,0.000000000,0.000000000,0.069748751,0.000000000
1707741386.609603,,,1707741386.609131336,0.000000000,104.441848934,0.000000000,0.000000000,0.069748751,0.000000000
1707741386.611864,,,1707741386.611245155,0.000000000,104.441848934,0.000000000,0.000000000,0.069748751,0.000000000
1707741386.613551,,,1707741386.613256454,0.000000000,104.441848934,0.000000000,0.000000000,0.069748751,0.000000000
1707741386.615782,,,1707741386.615134954,0.000000000,104.441848934,0.000000000,0.000000000,0.069748751,0.000000000
1707741386.617470,,,1707741386.617134571,0.000000000,104.441848934,0.000000000,0.000000000,0.069748751,0.000000000
1707741386.619709,,,1707741386.619251966,0.000000000,104.441848934,0.000000000,0.000000000,0.069748751,0.000000000
1707741386.621398,,,1707741386.621135473,0.000000000,104.441848934,0.000000000,0.000000000,0.069748751,0.000000000
1707741386.623696,,,1707741386.623123646,0.000000000,104.441848934,0.000000000,0.000000000,0.069748751,0.000000000
1707741386.625349,,,1707741386.625141382,0.000000000,104.441848934,0.000000000,0.000000000,0.069748751,0.000000000
1707741386.627625,,,1707741386.627253056,0.000000000,104.441848934,0.000000000,0.000000000,0.069748751,0.000000000
1707741386.629318,,,1707741386.629141569,0.000000000,104.441848934,0.000000000,0.000000000,0.069748751,0.000000000
1707741386.631573,,,1707741386.631133080,0.000000000,104.441848934,0.000000000,0.000000000,0.069748751,0.000000000
1707741386.633817,,,1707741386.633257866,0.000000000,104.441848934,0.000000000,0.000000000,0.069748751,0.000000000
1707741386.635534,,,1707741386.635131598,0.000000000,104.441848934,0.000000000,0.000000000,0.069748751,0.000000000
1707741386.637760,,,1707741386.637133837,0.000000000,104.441848934,0.000000000,0.000000000,0.069748751,0.000000000
1707741386.639417,,,1707741386.639162779,0.000000000,104.441848934,0.000000000,0.000000000,0.069748751,0.000000000
1707741386.641742,,,1707741386.641243935,0.000000000,104.441848934,0.000000000,0.000000000,0.069748751,0.000000000
1707741386.643987,,,1707741386.643385410,0.000000000,104.441848934,0.000000000,0.000000000,0.069748751,0.000000000
1707741386.645638,,,1707741386.645123243,0.000000000,104.441848934,0.000000000,0.000000000,0.069748751,0.000000000
1707741386.647881,,,1707741386.647248030,0.000000000,104.441848934,0.000000000,0.000000000,0.069748751,0.000000000
1707741386.649599,,,1707741386.649133921,0.000000000,104.441848934,0.000000000,0.000000000,0.069748751,0.000000000
1707741386.651772,,,1707741386.651158810,0.000000000,104.441848934,0.000000000,0.000000000,0.069748751,0.000000000
1707741386.653453,,,1707741386.653121471,0.000000000,104.441848934,0.000000000,0.000000000,0.069748751,0.000000000
1707741386.655760,,,1707741386.655253172,0.000000000,104.441848934,0.000000000,0.000000000,0.069748751,0.000000000
1707741386.657405,,,1707741386.657142878,0.000000000,104.441848934,0.000000000,0.000000000,0.069748751,0.000000000
1707741386.659674,,,1707741386.659160852,0.000000000,104.441848934,0.000000000,0.000000000,0.069748751,0.000000000
1707741386.661331,,,1707741386.661141634,0.000000000,104.441848934,0.000000000,0.000000000,0.069748751,0.000000000
1707741386.663607,,,1707741386.663267612,0.000000000,104.441848934,0.000000000,0.000000000,0.069748751,0.000000000
1707741386.665244,,,1707741386.665116787,0.000000000,104.441848934,0.000000000,0.000000000,0.069748751,0.000000000
1707741386.667491,,,1707741386.667145729,0.000000000,104.441848934,0.000000000,0.000000000,0.069748751,0.000000000
1707741386.669780,,,1707741386.669267654,0.000000000,104.441848934,0.000000000,0.000000000,0.069748751,0.000000000
1707741386.671503,,,1707741386.671145201,0.000000000,104.441848934,0.000000000,0.000000000,0.069748751,0.000000000
1707741386.673726,,,1707741386.673256159,0.000000000,104.441848934,0.000000000,0.000000000,0.069748751,0.000000000
1707741386.675447,,,1707741386.675158978,0.000000000,104.441848934,0.000000000,0.000000000,0.069748751,0.000000000
1707741386.677667,,,1707741386.677133083,0.000000000,104.441848934,0.000000000,0.000000000,0.069748751,0.000000000
1707741386.679373,,,1707741386.679150820,0.000000000,104.441848934,0.000000000,0.000000000,0.069748751,0.000000000
1707741386.681629,,,1707741386.681134939,0.000000000,104.441848934,0.000000000,0.000000000,0.069748751,0.000000000
1707741386.683294,,,1707741386.683141470,0.000000000,104.441848934,0.000000000,0.000000000,0.069748751,0.000000000
1707741386.685581,,,1707741386.685262680,0.000000000,104.441848934,0.000000000,0.000000000,0.069748751,0.000000000
1707741386.687795,,,1707741386.687159061,0.000000000,104.441848934,0.000000000,0.000000000,0.069748751,0.000000000
1707741386.689485,,,1707741386.689130783,0.000000000,104.441848934,0.000000000,0.000000000,0.069748751,0.000000000
1707741386.691736,,,1707741386.691267967,0.000000000,104.441848934,0.000000000,0.000000000,0.069748751,0.000000000
1707741386.693380,,,1707741386.693123817,0.000000000,104.441848934,0.000000000,0.000000000,0.069748751,0.000000000
1707741386.695618,,,1707741386.695165157,0.000000000,104.441848934,0.000000000,0.000000000,0.069748751,0.000000000
1707741386.697311,,,1707741386.697134018,0.000000000,104.441848934,0.000000000,0.000000000,0.069748751,0.000000000
1707741386.699555,,,1707741386.699242115,0.000000000,104.441848934,0.000000000,0.000000000,0.069748751,0.000000000
1707741386.701822,,,1707741386.701267958,0.000000000,104.441848934,0.000000000,0.000000000,0.069748751,0.000000000
1707741386.703514,,,1707741386.703151703,0.000000000,104.441848934,0.000000000,0.000000000,0.069748751,0.000000000
1707741386.705795,,,1707741386.705267906,0.000000000,104.441848934,0.000000000,0.000000000,0.069748751,0.000000000
1707741386.707479,,,1707741386.707144976,0.000000000,104.441848934,0.000000000,0.000000000,0.069748751,0.000000000
1707741386.709720,,,1707741386.709131718,0.000000000,104.441848934,0.000000000,0.000000000,0.069748751,0.000000000
1707741386.711409,,,1707741386.711130857,0.000000000,104.441848934,0.000000000,0.000000000,0.069748751,0.000000000
1707741386.713686,,,1707741386.713332891,0.000000000,104.441848934,0.000000000,0.000000000,0.069748751,0.000000000
1707741386.715366,,,1707741386.715158224,0.000000000,104.441848934,0.000000000,0.000000000,0.069748751,0.000000000
1707741386.717578,,,1707741386.717130899,0.000000000,104.441848934,0.000000000,0.000000000,0.069748751,0.000000000
1707741386.719859,,,1707741386.719269276,0.000000000,104.441848934,0.000000000,0.000000000,0.069748751,0.000000000
1707741386.721544,,,1707741386.721134186,0.000000000,104.441848934,0.000000000,0.000000000,0.069748751,0.000000000
1707741386.723753,,,1707741386.723143101,0.000000000,104.441848934,0.000000000,0.000000000,0.069748751,0.000000000
1707741386.725573,,,1707741386.725132704,0.000000000,104.441848934,0.000000000,0.000000000,0.069748751,0.000000000
1707741386.727358,,,1707741386.727150917,0.000000000,104.441848934,0.000000000,0.000000000,0.069748751,0.000000000
1707741386.729798,,,1707741386.729167938,0.000000000,104.441848934,0.000000000,0.000000000,0.069748751,0.000000000
1707741386.731592,,,1707741386.731187344,0.000000000,104.441848934,0.000000000,0.000000000,0.069748751,0.000000000
1707741386.733488,,,1707741386.733175278,0.000000000,104.441848934,0.000000000,0.000000000,0.069748751,0.000000000
1707741386.735934,,,1707741386.735340357,0.000000000,104.441848934,0.000000000,0.000000000,0.069748751,0.000000000
1707741386.737744,,,1707741386.737368107,0.000000000,104.441848934,0.000000000,0.000000000,0.069748751,0.000000000
1707741386.739570,,,1707741386.739148855,0.000000000,104.441848934,0.000000000,0.000000000,0.069748751,0.000000000
1707741386.741383,,,1707741386.741136789,0.000000000,104.441848934,0.000000000,0.000000000,0.069748751,0.000000000
1707741386.743824,,,1707741386.743138075,0.000000000,104.441848934,0.000000000,0.000000000,0.069748751,0.000000000
1707741386.745601,,,1707741386.745138168,0.000000000,104.441848934,0.000000000,0.000000000,0.069748751,0.000000000
1707741386.747328,,,1707741386.747149467,0.000000000,104.441848934,0.000000000,0.000000000,0.069748751,0.000000000
1707741386.749585,,,1707741386.749139547,0.000000000,104.441848934,0.000000000,0.000000000,0.069748751,0.000000000
1707741386.751865,,,1707741386.751266718,0.000000000,104.441848934,0.000000000,0.000000000,0.069748751,0.000000000
1707741386.753567,,,1707741386.753258705,0.000000000,104.441848934,0.000000000,0.000000000,0.069748751,0.000000000
1707741386.755811,,,1707741386.755152225,0.000000000,104.441848934,0.000000000,0.000000000,0.069748751,0.000000000
1707741386.757564,,,1707741386.757169962,0.000000000,104.441848934,0.000000000,0.000000000,0.069748751,0.000000000
1707741386.759724,,,1707741386.759177446,0.000000000,104.441848934,0.000000000,0.000000000,0.069748751,0.000000000
1707741386.761466,,,1707741386.761138439,0.000000000,104.441848934,0.000000000,0.000000000,0.069748751,0.000000000
1707741386.763723,,,1707741386.763291359,0.000000000,104.441848934,0.000000000,0.000000000,0.069748751,0.000000000
1707741386.765412,,,1707741386.765147448,0.000000000,104.441848934,0.000000000,0.000000000,0.069748751,0.000000000
1707741386.767650,,,1707741386.767428398,0.000000000,104.441848934,0.000000000,0.000000000,0.069748751,0.000000000
1707741386.769340,,,1707741386.769158602,0.000000000,104.441848934,0.000000000,0.000000000,0.069748751,0.000000000
1707741386.771596,,,1707741386.771420002,0.000000000,104.441848934,0.000000000,0.000000000,0.069748751,0.000000000
1707741386.773300,,,1707741386.773145199,0.000000000,104.441848934,0.000000000,0.000000000,0.069748751,0.000000000
1707741386.775791,,,1707741386.775253773,0.000000000,104.441848934,0.000000000,0.000000000,0.069748751,0.000000000
1707741386.777620,,,1707741386.777162313,0.000000000,104.441848934,0.000000000,0.000000000,0.069748751,0.000000000
1707741386.779402,,,1707741386.779246092,0.000000000,104.441848934,0.000000000,0.000000000,0.069748751,0.000000000
1707741386.781781,,,1707741386.781293869,0.000000000,104.441848934,0.000000000,0.000000000,0.069748751,0.000000000
1707741386.783681,,,1707741386.783404350,0.000000000,104.441848934,0.000000000,0.000000000,0.069748751,0.000000000
1707741386.785582,,,1707741386.785130501,0.000000000,104.441848934,0.000000000,0.000000000,0.069748751,0.000000000
1707741386.787353,,,1707741386.787163019,0.000000000,104.441848934,0.000000000,0.000000000,0.069748751,0.000000000
1707741386.789811,,,1707741386.789283514,0.000000000,104.441848934,0.000000000,0.000000000,0.069748751,0.000000000
1707741386.791643,,,1707741386.791180372,0.000000000,104.441848934,0.000000000,0.000000000,0.069748751,0.000000000
1707741386.793468,,,1707741386.793167353,0.000000000,104.441848934,0.000000000,0.000000000,0.069748751,0.000000000
1707741386.795248,,,1707741386.795140028,0.000000000,104.441848934,0.000000000,0.000000000,0.069748751,0.000000000
1707741386.797400,,,1707741386.797250271,0.000000000,104.441848934,0.000000000,0.000000000,0.069748751,0.000000000
1707741386.799513,,,1707741386.799260378,0.000000000,104.441848934,0.000000000,0.000000000,0.069748751,0.000000000
1707741386.801360,,,1707741386.801137924,0.000000000,104.441848934,0.000000000,0.000000000,0.069748751,0.000000000
1707741386.803725,,,1707741386.803130627,0.000000000,104.441848934,0.000000000,0.000000000,0.069748751,0.000000000
1707741386.805509,,,1707741386.805246353,0.000000000,104.441848934,0.000000000,0.000000000,0.069748751,0.000000000
1707741386.807838,,,1707741386.807165861,0.000000000,104.441848934,0.000000000,0.000000000,0.069748751,0.000000000
1707741386.809507,,,1707741386.809138298,0.000000000,104.441848934,0.000000000,0.000000000,0.069748751,0.000000000
1707741386.811759,,,1707741386.811258554,0.000000000,104.441848934,0.000000000,0.000000000,0.069748751,0.000000000
1707741386.813428,,,1707741386.813128471,0.000000000,104.441848934,0.000000000,0.000000000,0.069748751,0.000000000
1707741386.815667,,,1707741386.815156698,0.000000000,104.441848934,0.000000000,0.000000000,0.069748751,0.000000000
1707741386.817352,,,1707741386.817118645,0.000000000,104.441848934,0.000000000,0.000000000,0.069748751,0.000000000
1707741386.819639,,,1707741386.819264412,0.000000000,104.441848934,0.000000000,0.000000000,0.069748751,0.000000000
1707741386.821303,,,1707741386.821136475,0.000000000,104.441848934,0.000000000,0.000000000,0.069748751,0.000000000
1707741386.823492,,,1707741386.823156595,0.000000000,104.441848934,0.000000000,0.000000000,0.069748751,0.000000000
1707741386.825772,,,1707741386.825263739,0.000000000,104.441848934,0.000000000,0.000000000,0.069748751,0.000000000
1707741386.827486,,,1707741386.827147484,0.000000000,104.441848934,0.000000000,0.000000000,0.069748751,0.000000000
1707741386.829724,,,1707741386.829138994,0.000000000,104.441848934,0.000000000,0.000000000,0.069748751,0.000000000
1707741386.831418,,,1707741386.831255198,0.000000000,104.441848934,0.000000000,0.000000000,0.069748751,0.000000000
1707741386.833658,,,1707741386.833337545,0.000000000,104.441848934,0.000000000,0.000000000,0.069748751,0.000000000
1707741386.835355,,,1707741386.835141182,0.000000000,104.441848934,0.000000000,0.000000000,0.069748751,0.000000000
1707741386.837599,,,1707741386.837138414,0.000000000,104.441848934,0.000000000,0.000000000,0.069748751,0.000000000
1707741386.839290,,,1707741386.839141369,0.000000000,104.441848934,0.000000000,0.000000000,0.069748751,0.000000000
1707741386.841554,,,1707741386.841138601,0.000000000,104.441848934,0.000000000,0.000000000,0.069748751,0.000000000
1707741386.843798,,,1707741386.843158245,0.000000000,104.441848934,0.000000000,0.000000000,0.069748751,0.000000000
1707741386.845517,,,1707741386.845139503,0.000000000,104.441848934,0.000000000,0.000000000,0.069748751,0.000000000
1707741386.847729,,,1707741386.847141743,0.000000000,104.441848934,0.000000000,0.000000000,0.069748751,0.000000000
1707741386.849413,,,1707741386.849139690,0.000000000,104.441848934,0.000000000,0.000000000,0.069748751,0.000000000
1707741386.851656,,,1707741386.851252794,0.000000000,104.441848934,0.000000000,0.000000000,0.069748751,0.000000000
1707741386.853350,,,1707741386.853129387,0.000000000,104.441848934,0.000000000,0.000000000,0.069748751,0.000000000
1707741386.855594,,,1707741386.855155706,0.000000000,104.441848934,0.000000000,0.000000000,0.069748751,0.000000000
1707741386.857288,,,1707741386.857144833,0.000000000,104.441848934,0.000000000,0.000000000,0.069748751,0.000000000
1707741386.859549,,,1707741386.859241486,0.000000000,104.441848934,0.000000000,0.000000000,0.069748751,0.000000000
1707741386.861797,,,1707741386.861140728,0.000000000,104.441848934,0.000000000,0.000000000,0.069748751,0.000000000
1707741386.863487,,,1707741386.863358498,0.000000000,104.441848934,0.000000000,0.000000000,0.069748751,0.000000000
1707741386.865751,,,1707741386.865144253,0.000000000,104.441848934,0.000000000,0.000000000,0.069748751,0.000000000
1707741386.867442,,,1707741386.867155552,0.000000000,104.441848934,0.000000000,0.000000000,0.069748751,0.000000000
1707741386.869673,,,1707741386.869260073,0.000000000,104.441848934,0.000000000,0.000000000,0.069748751,0.000000000
1707741386.871378,,,1707741386.871140957,0.000000000,104.441848934,0.000000000,0.000000000,0.069748751,0.000000000
1707741386.873617,,,1707741386.873131990,0.000000000,104.441848934,0.000000000,0.000000000,0.069748751,0.000000000
1707741386.875307,,,1707741386.875156879,0.000000000,104.441848934,0.000000000,0.000000000,0.069748751,0.000000000
1707741386.877542,,,1707741386.877125740,0.000000000,104.441848934,0.000000000,0.000000000,0.069748751,0.000000000
1707741386.879779,,,1707741386.879140377,0.000000000,104.441848934,0.000000000,0.000000000,0.069748751,0.000000000
1707741386.881492,,,1707741386.881274223,0.000000000,104.441848934,0.000000000,0.000000000,0.069748751,0.000000000
1707741386.883734,,,1707741386.883212090,0.000000000,104.441848934,0.000000000,0.000000000,0.069748751,0.000000000
1707741386.885423,,,1707741386.885138750,0.000000000,104.441848934,0.000000000,0.000000000,0.069748751,0.000000000
1707741386.887684,,,1707741386.887269497,0.000000000,104.441848934,0.000000000,0.000000000,0.069748751,0.000000000
1707741386.889348,,,1707741386.889138699,0.000000000,104.441848934,0.000000000,0.000000000,0.069748751,0.000000000
1707741386.891598,,,1707741386.891139746,0.000000000,104.441848934,0.000000000,0.000000000,0.069748751,0.000000000
1707741386.893292,,,1707741386.893136024,0.000000000,104.441848934,0.000000000,0.000000000,0.069748751,0.000000000
1707741386.895553,,,1707741386.895268917,0.000000000,104.441848934,0.000000000,0.000000000,0.069748751,0.000000000
1707741386.897797,,,1707741386.897140741,0.000000000,104.441848934,0.000000000,0.000000000,0.069748751,0.000000000
