__time,/joint_states/header/stamp,/joint_states/joint0/effort,/joint_states/joint0/position,/joint_states/joint0/velocity,/joint_states/joint1/effort,/joint_states/joint1/position,/joint_states/joint1/velocity
1686597913.486519,1686597913.486169338,0.000000000,0.235645814,0.000000000,0.000000000,-9.415394313,0.000000000
1686597913.488306,1686597913.488160372,0.000000000,0.235645814,0.000000000,0.000000000,-9.415394313,0.000000000
1686597913.490129,1686597913.489934683,0.000000000,0.235645814,0.000000000,0.000000000,-9.415394313,0.000000000
1686597913.491947,1686597913.491706848,0.000000000,0.235645814,0.000000000,0.000000000,-9.415394313,0.000000000
1686597913.494379,1686597913.493678808,0.000000000,0.235645814,0.000000000,0.000000000,-9.415394313,0.000000000
1686597913.496215,1686597913.495673895,0.000000000,0.235645814,0.000000000,0.000000000,-9.415394313,0.000000000
1686597913.498033,1686597913.497677565,0.000000000,0.235645814,0.000000000,0.000000000,-9.415394313,0.000000000
1686597913.500371,1686597913.499669790,0.000000000,0.235645814,0.000000000,0.000000000,-9.415394313,0.000000000
1686597913.502161,1686597913.501677752,0.000000000,0.235645814,0.000000000,0.000000000,-9.415394313,0.000000000
1686597913.504317,1686597913.503710508,0.000000000,0.235645814,0.000000000,0.000000000,-9.415394313,0.000000000
1686597913.506151,1686597913.505650520,0.000000000,0.235645814,0.000000000,0.000000000,-9.415394313,0.000000000
1686597913.507979,1686597913.507679701,0.000000000,0.235645814,0.000000000,0.000000000,-9.415394313,0.000000000
1686597913.510416,1686597913.509678364,0.000000000,0.235645814,0.000000000,0.000000000,-9.415394313,0.000000000
1686597913.512207,1686597913.511676073,0.000000000,0.235645814,0.000000000,0.000000000,-9.415394313,0.000000000
1686597913.514274,1686597913.513716936,0.000000000,0.235645814,0.000000000,0.000000000,-9.415394313,0.000000000
1686597913.516113,1686597913.515798569,0.000000000,0.235645814,0.000000000,0.000000000,-9.415394313,0.000000000
1686597913.517947,1686597913.517668009,0.000000000,0.235645814,0.000000000,0.000000000,-9.415394313,0.000000000
1686597913.520324,1686597913.519676924,0.000000000,0.235645814,0.000000000,0.000000000,-9.415394313,0.000000000
1686597913.522103,1686597913.521680117,0.000000000,0.235645814,0.000000000,0.000000000,-9.415394313,0.000000000
1686597913.523880,1686597913.523651123,0.000000000,0.235645814,0.000000000,0.000000000,-9.415394313,0.000000000
1686597913.526358,1686597913.525717020,0.000000000,0.235645814,0.000000000,0.000000000,-9.415394313,0.000000000
1686597913.528205,1686597913.527669907,0.000000000,0.235645814,0.000000000,0.000000000,-9.415394313,0.000000000
1686597913.529989,1686597913.529796600,0.000000000,0.235645814,0.000000000,0.000000000,-9.414531448,0.287621421
1686597913.532372,1686597913.531796932,0.000000000,0.235645814,0.000000000,0.000000000,-9.414171922,0.191747622
1686597913.534208,1686597913.533674717,0.000000000,0.235645814,0.000000000,0.000000000,-9.414112001,0.095873817
1686597913.536289,1686597913.535672665,0.000000000,0.235645814,0.000000000,0.000000000,-9.414231843,0.000000000
1686597913.538128,1686597913.537674189,0.000000000,0.235645814,0.000000000,0.000000000,-9.414040095,0.000000000
1686597913.539966,1686597913.539706945,0.000000000,0.235645814,0.000000000,0.000000000,-9.413836363,0.095873805
1686597913.542390,1686597913.541797876,0.000000000,0.235645814,0.000000000,0.000000000,-9.413644616,0.095873805
1686597913.544253,1686597913.543703079,0.000000000,0.235645814,0.000000000,0.000000000,-9.413452868,0.095873805
1686597913.546046,1686597913.545717001,0.000000000,0.235645814,0.000000000,0.000000000,-9.413464852,0.095873805
1686597913.548420,1686597913.547799110,0.000000000,0.235645814,0.000000000,0.000000000,-9.413189215,0.095873805
1686597913.550247,1686597913.549786091,0.000000000,0.235645814,0.000000000,0.000000000,-9.412997468,0.095873805
1686597913.552080,1686597913.551667213,0.000000000,0.235645814,0.000000000,0.000000000,-9.412817704,0.095873805
1686597913.553914,1686597913.553676128,0.000000000,0.235645814,0.000000000,0.000000000,-9.412625957,0.095873805
1686597913.556351,1686597913.555675030,0.000000000,0.235645814,0.000000000,0.000000000,-9.412434209,0.095873805
1686597913.558182,1686597913.557675600,0.000000000,0.235645814,0.000000000,0.000000000,-9.412242462,0.095873805
1686597913.560009,1686597913.559718847,0.000000000,0.235645814,0.000000000,0.000000000,-9.412050714,0.095873805
1686597913.562411,1686597913.561693907,0.000000000,0.235645814,0.000000000,0.000000000,-9.411199834,0.287621421
1686597913.564247,1686597913.563678026,0.000000000,0.235645814,0.000000000,0.000000000,-9.411139913,0.095873817
1686597913.566081,1686597913.565722227,0.000000000,0.235645814,0.000000000,0.000000000,-9.410684512,0.191747622
1686597913.567845,1686597913.567668915,0.000000000,0.235645814,0.000000000,0.000000000,-9.410324986,0.191747622
1686597913.570261,1686597913.569701195,0.000000000,0.235645814,0.000000000,0.000000000,-9.410253080,0.095873817
1686597913.572101,1686597913.571652412,0.000000000,0.235645814,0.000000000,0.000000000,-9.410396891,0.000000000
1686597913.573927,1686597913.573704243,0.000000000,0.235645814,0.000000000,0.000000000,-9.410025380,0.095873805
1686597913.576347,1686597913.575702429,0.000000000,0.235645814,0.000000000,0.000000000,-9.409833632,0.095873805
1686597913.578118,1686597913.577686310,0.000000000,0.235645814,0.000000000,0.000000000,-9.409462121,0.095873805
1686597913.580448,1686597913.579707146,0.000000000,0.235645814,0.000000000,0.000000000,-9.409054658,0.191747610
1686597913.582227,1686597913.581703186,0.000000000,0.235645814,0.000000000,0.000000000,-9.408862910,0.191747610
1686597913.584059,1686597913.583671331,0.000000000,0.235645814,0.000000000,0.000000000,-9.408371557,0.191747610
1686597913.585872,1686597913.585703611,0.000000000,0.235645814,0.000000000,0.000000000,-9.407760361,0.191747610
1686597913.588316,1686597913.587707520,0.000000000,0.235645814,0.000000000,0.000000000,-9.407185119,0.287621421
1686597913.590124,1686597913.589668989,0.000000000,0.235645814,0.000000000,0.000000000,-9.407257024,0.095873817
1686597913.591943,1686597913.591709375,0.000000000,0.235645814,0.000000000,0.000000000,-9.406729718,0.191747622
1686597913.594382,1686597913.593677044,0.000000000,0.235645814,0.000000000,0.000000000,-9.406561939,0.191747622
1686597913.596137,1686597913.595660210,0.000000000,0.235645814,0.000000000,0.000000000,-9.406082570,0.191747622
1686597913.597951,1686597913.597704887,0.000000000,0.235645814,0.000000000,0.000000000,-9.405459390,0.191747622
1686597913.600314,1686597913.599672794,0.000000000,0.235645814,0.000000000,0.000000000,-9.404920100,0.287621421
1686597913.602146,1686597913.601675510,0.000000000,0.235645814,0.000000000,0.000000000,-9.404368826,0.287621421
1686597913.603990,1686597913.603711128,0.000000000,0.235645814,0.000000000,0.000000000,-9.404248984,0.191747622
1686597913.605823,1686597913.605672598,0.000000000,0.235645814,0.000000000,0.000000000,-9.403733662,0.191747622
1686597913.608255,1686597913.607676506,0.000000000,0.235645814,0.000000000,0.000000000,-9.403158419,0.191747622
1686597913.610076,1686597913.609706879,0.000000000,0.235645814,0.000000000,0.000000000,-9.402547224,0.287621421
1686597913.611860,1686597913.611664534,0.000000000,0.235645814,0.000000000,0.000000000,-9.402031902,0.287621421
1686597913.614290,1686597913.613700867,0.000000000,0.235645814,0.000000000,0.000000000,-9.401073164,0.383495220
1686597913.616118,1686597913.615671635,0.000000000,0.235645814,0.000000000,0.000000000,-9.400989274,0.191747622
1686597913.617941,1686597913.617664099,0.000000000,0.235645814,0.000000000,0.000000000,-9.400605779,0.191747622
1686597913.620296,1686597913.619662523,0.000000000,0.235645814,0.000000000,0.000000000,-9.399587120,0.383495220
1686597913.622086,1686597913.621663094,0.000000000,0.235645814,0.000000000,0.000000000,-9.399167672,0.287621421
1686597913.623826,1686597913.623675823,0.000000000,0.235645814,0.000000000,0.000000000,-9.398328776,0.383495220
1686597913.626255,1686597913.625671148,0.000000000,0.235645814,0.000000000,0.000000000,-9.397861392,0.191747622
1686597913.628047,1686597913.627596378,0.000000000,0.235645814,0.000000000,0.000000000,-9.397286149,0.287621421
1686597913.629877,1686597913.629664421,0.000000000,0.235645814,0.000000000,0.000000000,-9.396734874,0.287621421
1686597913.632276,1686597913.631662369,0.000000000,0.235645814,0.000000000,0.000000000,-9.395848042,0.383495220
1686597913.634101,1686597913.633660316,0.000000000,0.235645814,0.000000000,0.000000000,-9.395093036,0.383495220
1686597913.635885,1686597913.635663986,0.000000000,0.235645814,0.000000000,0.000000000,-9.394373982,0.383495220
1686597913.638314,1686597913.637671471,0.000000000,0.235645814,0.000000000,0.000000000,-9.393942550,0.287621421
1686597913.640141,1686597913.639663696,0.000000000,0.235645814,0.000000000,0.000000000,-9.393151591,0.383495220
1686597913.641966,1686597913.641676664,0.000000000,0.235645814,0.000000000,0.000000000,-9.392144916,0.479369043
1686597913.644325,1686597913.643662930,0.000000000,0.235645814,0.000000000,0.000000000,-9.391521737,0.383495244
1686597913.646107,1686597913.645664930,0.000000000,0.235645814,0.000000000,0.000000000,-9.391006415,0.287621445
1686597913.647845,1686597913.647587061,0.000000000,0.235645814,0.000000000,0.000000000,-9.390239425,0.287621445
1686597913.650278,1686597913.649677038,0.000000000,0.235645814,0.000000000,0.000000000,-9.389268702,0.383495244
1686597913.652108,1686597913.651587248,0.000000000,0.235645814,0.000000000,0.000000000,-9.388345917,0.479369043
1686597913.653934,1686597913.653587341,0.000000000,0.235645814,0.000000000,0.000000000,-9.387938453,0.287621445
1686597913.656318,1686597913.655663967,0.000000000,0.235645814,0.000000000,0.000000000,-9.386919794,0.479369043
1686597913.658139,1686597913.657664061,0.000000000,0.235645814,0.000000000,0.000000000,-9.385961056,0.479369043
1686597913.660009,1686597913.659663439,0.000000000,0.235645814,0.000000000,0.000000000,-9.385038271,0.479369043
1686597913.662403,1686597913.661664724,0.000000000,0.235645814,0.000000000,0.000000000,-9.384295249,0.479369043
1686597913.664235,1686597913.663590431,0.000000000,0.235645814,0.000000000,0.000000000,-9.383336511,0.383495244
1686597913.666283,1686597913.665707350,0.000000000,0.235645814,0.000000000,0.000000000,-9.382329836,0.479369043
1686597913.668104,1686597913.667705536,0.000000000,0.235645814,0.000000000,0.000000000,-9.381383082,0.479369043
1686597913.669929,1686597913.669664383,0.000000000,0.235645814,0.000000000,0.000000000,-9.380496250,0.479369043
1686597913.672314,1686597913.671587706,0.000000000,0.235645814,0.000000000,0.000000000,-9.379345764,0.479369043
1686597913.674136,1686597913.673662186,0.000000000,0.235645814,0.000000000,0.000000000,-9.378494884,0.479369043
1686597913.675986,1686597913.675662279,0.000000000,0.235645814,0.000000000,0.000000000,-9.377560115,0.479369043
1686597913.677809,1686597913.677591562,0.000000000,0.235645814,0.000000000,0.000000000,-9.376469550,0.479369043
1686597913.680236,1686597913.679673195,0.000000000,0.235645814,0.000000000,0.000000000,-9.375510812,0.479369043
1686597913.682142,1686597913.681670666,0.000000000,0.235645814,0.000000000,0.000000000,-9.374252469,0.575242842
1686597913.683956,1686597913.683669806,0.000000000,0.235645814,0.000000000,0.000000000,-9.373113967,0.575242842
1686597913.686379,1686597913.685657501,0.000000000,0.235645814,0.000000000,0.000000000,-9.371975466,0.575242842
1686597913.688209,1686597913.687661886,0.000000000,0.235645814,0.000000000,0.000000000,-9.370585296,0.671116642
1686597913.690035,1686597913.689669847,0.000000000,0.235645814,0.000000000,0.000000000,-9.369386873,0.575242842
1686597913.691818,1686597913.691662073,0.000000000,0.235645814,0.000000000,0.000000000,-9.368344246,0.575242842
1686597913.694248,1686597913.693585157,0.000000000,0.235645814,0.000000000,0.000000000,-9.367109871,0.479369043
1686597913.696034,1686597913.695662022,0.000000000,0.235645814,0.000000000,0.000000000,-9.365563906,0.575242842
1686597913.697872,1686597913.697662115,0.000000000,0.235645814,0.000000000,0.000000000,-9.364353499,0.671116642
1686597913.700303,1686597913.699671030,0.000000000,0.235645814,0.000000000,0.000000000,-9.363155076,0.671116642
1686597913.702129,1686597913.701662302,0.000000000,0.235645814,0.000000000,0.000000000,-9.361728954,0.575242842
1686597913.703948,1686597913.703664303,0.000000000,0.235645814,0.000000000,0.000000000,-9.360398705,0.671116642
1686597913.706378,1686597913.705661058,0.000000000,0.235645814,0.000000000,0.000000000,-9.358996550,0.766990441
1686597913.708200,1686597913.707662344,0.000000000,0.235645814,0.000000000,0.000000000,-9.357414633,0.766990441
1686597913.710023,1686597913.709661722,0.000000000,0.235645814,0.000000000,0.000000000,-9.355892636,0.766990441
1686597913.711805,1686597913.711587429,0.000000000,0.235645814,0.000000000,0.000000000,-9.354370639,0.766990441
1686597913.714186,1686597913.713670492,0.000000000,0.235645814,0.000000000,0.000000000,-9.352848643,0.766990441
1686597913.715965,1686597913.715675592,0.000000000,0.235645814,0.000000000,0.000000000,-9.351266725,0.766990488
1686597913.717783,1686597913.717591047,0.000000000,0.235645814,0.000000000,0.000000000,-9.349481076,0.862864287
1686597913.720172,1686597913.719660759,0.000000000,0.235645814,0.000000000,0.000000000,-9.348090906,0.766990488
1686597913.721991,1686597913.721665859,0.000000000,0.235645814,0.000000000,0.000000000,-9.346281288,0.766990488
1686597913.723816,1686597913.723664045,0.000000000,0.235645814,0.000000000,0.000000000,-9.344891118,0.766990488
1686597913.726250,1686597913.725663900,0.000000000,0.235645814,0.000000000,0.000000000,-9.343033563,0.862864287
1686597913.728153,1686597913.727645636,0.000000000,0.235645814,0.000000000,0.000000000,-9.341068150,0.958738086
1686597913.729976,1686597913.729663849,0.000000000,0.235645814,0.000000000,0.000000000,-9.339414327,0.766990488
1686597913.731746,1686597913.731586933,0.000000000,0.235645814,0.000000000,0.000000000,-9.337436930,0.958738086
1686597913.734176,1686597913.733645916,0.000000000,0.235645814,0.000000000,0.000000000,-9.336094696,0.766990488
1686597913.736257,1686597913.735671997,0.000000000,0.235645814,0.000000000,0.000000000,-9.333901583,0.958738086
1686597913.737924,1686597913.737645864,0.000000000,0.235645814,0.000000000,0.000000000,-9.331924186,0.958738086
1686597913.740290,1686597913.739662886,0.000000000,0.235645814,0.000000000,0.000000000,-9.330030679,0.958738086
1686597913.742126,1686597913.741653919,0.000000000,0.235645814,0.000000000,0.000000000,-9.328316935,0.958738086
1686597913.743943,1686597913.743665218,0.000000000,0.235645814,0.000000000,0.000000000,-9.326159774,0.958738086
1686597913.746378,1686597913.745656490,0.000000000,0.235645814,0.000000000,0.000000000,-9.323966661,1.054611885
1686597913.748204,1686597913.747577190,0.000000000,0.235645814,0.000000000,0.000000000,-9.322133074,1.054611885
1686597913.750029,1686597913.749664307,0.000000000,0.235645814,0.000000000,0.000000000,-9.319915993,1.054611885
1686597913.752388,1686597913.751664162,0.000000000,0.235645814,0.000000000,0.000000000,-9.317579069,1.150485685
1686597913.754215,1686597913.753586292,0.000000000,0.235645814,0.000000000,0.000000000,-9.315589688,1.054611885
1686597913.756042,1686597913.755665302,0.000000000,0.235645814,0.000000000,0.000000000,-9.313420543,1.054611885
1686597913.757866,1686597913.757663250,0.000000000,0.235645814,0.000000000,0.000000000,-9.311047666,1.150485685
1686597913.760301,1686597913.759663343,0.000000000,0.235645814,0.000000000,0.000000000,-9.308818601,1.054611885
1686597913.762131,1686597913.761665583,0.000000000,0.235645814,0.000000000,0.000000000,-9.306361834,1.054611885
1686597913.763944,1686597913.763663530,0.000000000,0.235645814,0.000000000,0.000000000,-9.304132769,1.054611885
1686597913.766370,1686597913.765662670,0.000000000,0.235645814,0.000000000,0.000000000,-9.301580129,1.246359484
1686597913.768200,1686597913.767667055,0.000000000,0.235645814,0.000000000,0.000000000,-9.299111378,1.246359484
1686597913.770038,1686597913.769663811,0.000000000,0.235645814,0.000000000,0.000000000,-9.296930249,1.150485685
1686597913.771818,1686597913.771662712,0.000000000,0.235645814,0.000000000,0.000000000,-9.294113957,1.246359484
1686597913.773908,1686597913.773665667,0.000000000,0.235645814,0.000000000,0.000000000,-9.291441474,1.342233283
1686597913.776302,1686597913.775664568,0.000000000,0.235645814,0.000000000,0.000000000,-9.289128519,1.246359484
1686597913.778131,1686597913.777663946,0.000000000,0.235645814,0.000000000,0.000000000,-9.286384132,1.246359484
1686597913.779969,1686597913.779664993,0.000000000,0.235645814,0.000000000,0.000000000,-9.283651728,1.342233283
1686597913.782395,1686597913.781665802,0.000000000,0.235645814,0.000000000,0.000000000,-9.280919325,1.342233283
1686597913.784229,1686597913.783665180,0.000000000,0.235645814,0.000000000,0.000000000,-9.277851363,1.438107082
1686597913.786053,1686597913.785664082,0.000000000,0.235645814,0.000000000,0.000000000,-9.275274755,1.342233283
1686597913.787837,1686597913.787648439,0.000000000,0.235645814,0.000000000,0.000000000,-9.272170841,1.533980882
1686597913.789908,1686597913.789672375,0.000000000,0.235645814,0.000000000,0.000000000,-9.268911132,1.533980975
1686597913.792330,1686597913.791665316,0.000000000,0.235645814,0.000000000,0.000000000,-9.266022933,1.533980975
1686597913.794102,1686597913.793662548,0.000000000,0.235645814,0.000000000,0.000000000,-9.263098783,1.629854774
1686597913.795778,1686597913.795669794,0.000000000,0.235645814,0.000000000,0.000000000,-9.259910979,1.438107176
1686597913.798076,1686597913.797659874,0.000000000,0.235645814,0.000000000,0.000000000,-9.256531427,1.533980975
1686597913.800290,1686597913.799663067,0.000000000,0.235645814,0.000000000,0.000000000,-9.253415529,1.533980975
1686597913.802221,1686597913.801941872,0.000000000,0.235645814,0.000000000,0.000000000,-9.249233034,1.629854774
1686597913.804429,1686597913.803818226,0.000000000,0.235645814,0.000000000,0.000000000,-9.246045231,1.725728574
1686597913.806159,1686597913.805648804,0.000000000,0.235645814,0.000000000,0.000000000,-9.242881395,1.725728574
1686597913.808376,1686597913.807831526,0.000000000,0.235645814,0.000000000,0.000000000,-9.238914617,1.821602373
1686597913.810066,1686597913.809653521,0.000000000,0.235645814,0.000000000,0.000000000,-9.235726813,1.821602373
1686597913.812330,1686597913.811675549,0.000000000,0.235645814,0.000000000,0.000000000,-9.231891861,1.917476172
1686597913.814034,1686597913.813665152,0.000000000,0.235645814,0.000000000,0.000000000,-9.228332546,1.821602373
1686597913.816296,1686597913.815760612,0.000000000,0.235645814,0.000000000,0.000000000,-9.224090131,1.917476172
1686597913.817990,1686597913.817651510,0.000000000,0.235645814,0.000000000,0.000000000,-9.220422958,1.917476172
1686597913.820240,1686597913.819640636,0.000000000,0.235645814,0.000000000,0.000000000,-9.216288400,2.013349971
1686597913.821954,1686597913.821665287,0.000000000,0.235645814,0.000000000,0.000000000,-9.211950111,2.013349971
1686597913.824191,1686597913.823802710,0.000000000,0.235645814,0.000000000,0.000000000,-9.207767616,2.109223771
1686597913.825880,1686597913.825573683,0.000000000,0.235645814,0.000000000,0.000000000,-9.203956633,2.013349971
1686597913.828245,1686597913.827669621,0.000000000,0.235645814,0.000000000,0.000000000,-9.199546438,2.109223771
1686597913.830171,1686597913.829584122,0.000000000,0.235645814,0.000000000,0.000000000,-9.195124259,2.205097570
1686597913.831998,1686597913.831672192,0.000000000,0.235645814,0.000000000,0.000000000,-9.189659452,2.492718968
1686597913.833822,1686597913.833664894,0.000000000,0.235645814,0.000000000,0.000000000,-9.185884422,2.205097570
1686597913.836273,1686597913.835650206,0.000000000,0.235645814,0.000000000,0.000000000,-9.180731205,2.396845168
